Created as New Dataset, , 
nm, %T, 
800.0, 51.21, 
799.0, 51.77, 
798.0, 51.24, 
797.0, 51.42, 
796.0, 51.50, 
795.0, 51.04, 
794.0, 51.72, 
793.0, 50.96, 
792.0, 51.60, 
791.0, 51.00, 
790.0, 51.16, 
789.0, 51.20, 
788.0, 51.15, 
787.0, 51.13, 
786.0, 51.28, 
785.0, 51.67, 
784.0, 51.04, 
783.0, 51.10, 
782.0, 51.20, 
781.0, 51.04, 
780.0, 51.06, 
779.0, 51.29, 
778.0, 51.10, 
777.0, 51.04, 
776.0, 50.66, 
775.0, 51.21, 
774.0, 51.23, 
773.0, 51.11, 
772.0, 50.91, 
771.0, 50.78, 
770.0, 50.68, 
769.0, 50.82, 
768.0, 50.51, 
767.0, 50.96, 
766.0, 50.74, 
765.0, 50.73, 
764.0, 50.38, 
763.0, 50.82, 
762.0, 50.66, 
761.0, 50.62, 
760.0, 50.19, 
759.0, 50.72, 
758.0, 50.59, 
757.0, 50.67, 
756.0, 50.73, 
755.0, 50.46, 
754.0, 50.24, 
753.0, 50.66, 
752.0, 50.44, 
751.0, 50.30, 
750.0, 50.35, 
749.0, 50.32, 
748.0, 50.68, 
747.0, 50.59, 
746.0, 50.08, 
745.0, 50.10, 
744.0, 49.96, 
743.0, 50.19, 
742.0, 50.10, 
741.0, 50.14, 
740.0, 50.07, 
739.0, 50.05, 
738.0, 50.03, 
737.0, 50.12, 
736.0, 50.08, 
735.0, 50.05, 
734.0, 50.09, 
733.0, 50.08, 
732.0, 49.88, 
731.0, 49.84, 
730.0, 49.98, 
729.0, 50.10, 
728.0, 49.99, 
727.0, 49.88, 
726.0, 49.80, 
725.0, 50.02, 
724.0, 49.72, 
723.0, 49.68, 
722.0, 49.69, 
721.0, 49.76, 
720.0, 49.63, 
719.0, 49.29, 
718.0, 49.45, 
717.0, 49.52, 
716.0, 49.57, 
715.0, 49.49, 
714.0, 49.15, 
713.0, 49.36, 
712.0, 49.26, 
711.0, 49.08, 
710.0, 49.34, 
709.0, 49.29, 
708.0, 49.17, 
707.0, 49.12, 
706.0, 49.32, 
705.0, 49.12, 
704.0, 49.31, 
703.0, 49.26, 
702.0, 49.18, 
701.0, 49.10, 
700.0, 49.09, 
699.0, 49.13, 
698.0, 49.09, 
697.0, 48.91, 
696.0, 48.94, 
695.0, 49.17, 
694.0, 49.00, 
693.0, 48.66, 
692.0, 48.66, 
691.0, 48.59, 
690.0, 48.70, 
689.0, 46.47, 
688.0, 43.18, 
687.0, 43.28, 
686.0, 43.31, 
685.0, 43.16, 
684.0, 43.17, 
683.0, 43.16, 
682.0, 43.29, 
681.0, 43.35, 
680.0, 43.32, 
679.0, 43.14, 
678.0, 42.95, 
677.0, 42.93, 
676.0, 42.87, 
675.0, 43.02, 
674.0, 42.91, 
673.0, 42.79, 
672.0, 43.06, 
671.0, 42.94, 
670.0, 42.97, 
669.0, 43.07, 
668.0, 43.23, 
667.0, 43.12, 
666.0, 42.96, 
665.0, 42.90, 
664.0, 42.85, 
663.0, 42.78, 
662.0, 42.78, 
661.0, 42.90, 
660.0, 42.89, 
659.0, 42.88, 
658.0, 42.87, 
657.0, 42.70, 
656.0, 42.72, 
655.0, 42.78, 
654.0, 42.73, 
653.0, 42.74, 
652.0, 42.65, 
651.0, 42.77, 
650.0, 42.85, 
649.0, 42.75, 
648.0, 42.73, 
647.0, 42.79, 
646.0, 42.75, 
645.0, 42.60, 
644.0, 42.60, 
643.0, 42.76, 
642.0, 42.60, 
641.0, 42.77, 
640.0, 42.75, 
639.0, 42.53, 
638.0, 42.63, 
637.0, 42.63, 
636.0, 42.66, 
635.0, 43.07, 
634.0, 43.00, 
633.0, 42.82, 
632.0, 42.76, 
631.0, 42.84, 
630.0, 42.75, 
629.0, 42.97, 
628.0, 43.06, 
627.0, 42.79, 
626.0, 42.66, 
625.0, 42.47, 
624.0, 42.73, 
623.0, 42.72, 
622.0, 42.55, 
621.0, 42.74, 
620.0, 42.64, 
619.0, 42.62, 
618.0, 42.69, 
617.0, 42.75, 
616.0, 42.57, 
615.0, 42.57, 
614.0, 42.38, 
613.0, 42.27, 
612.0, 42.54, 
611.0, 42.53, 
610.0, 42.47, 
609.0, 42.26, 
608.0, 42.59, 
607.0, 42.57, 
606.0, 42.44, 
605.0, 42.45, 
604.0, 42.11, 
603.0, 42.31, 
602.0, 42.47, 
601.0, 42.22, 
600.0, 42.16, 
599.0, 42.16, 
598.0, 42.44, 
597.0, 42.33, 
596.0, 42.07, 
595.0, 41.90, 
594.0, 41.93, 
593.0, 41.66, 
592.0, 41.98, 
591.0, 41.79, 
590.0, 41.50, 
589.0, 41.83, 
588.0, 41.38, 
587.0, 41.32, 
586.0, 41.30, 
585.0, 40.78, 
584.0, 40.64, 
583.0, 40.45, 
582.0, 39.61, 
581.0, 39.23, 
580.0, 38.67, 
579.0, 38.07, 
578.0, 36.82, 
577.0, 36.14, 
576.0, 34.44, 
575.0, 32.96, 
574.0, 30.76, 
573.0, 28.37, 
572.0, 25.51, 
571.0, 22.39, 
570.0, 18.74, 
569.0, 15.30, 
568.0, 11.79, 
567.0, 8.36, 
566.0, 5.27, 
565.0, 3.14, 
564.0, 1.51, 
563.0, 0.59, 
562.0, 0.13, 
561.0, -0.09, 
560.0, 0.45, 
559.0, 0.45, 
558.0, 0.12, 
557.0, -0.30, 
556.0, 0.22, 
555.0, 0.24, 
554.0, -0.11, 
553.0, -0.06, 
552.0, -0.35, 
551.0, -0.35, 
550.0, 0.47, 
549.0, 0.20, 
548.0, 0.41, 
547.0, -0.02, 
546.0, 0.12, 
545.0, 0.38, 
544.0, 0.32, 
543.0, -0.10, 
542.0, -0.18, 
541.0, -0.04, 
540.0, -0.22, 
539.0, 0.37, 
538.0, 0.33, 
537.0, 0.39, 
536.0, 0.19, 
535.0, -0.14, 
534.0, 0.21, 
533.0, -0.04, 
532.0, 0.09, 
531.0, -0.03, 
530.0, -0.08, 
529.0, -0.29, 
528.0, 0.28, 
527.0, 0.51, 
526.0, -0.10, 
525.0, 0.40, 
524.0, 0.24, 
523.0, 0.34, 
522.0, -0.19, 
521.0, 0.15, 
520.0, 0.27, 
519.0, 0.08, 
518.0, -0.12, 
517.0, 0.19, 
516.0, 0.02, 
515.0, -0.13, 
514.0, -0.36, 
513.0, 0.21, 
512.0, -0.26, 
511.0, -0.06, 
510.0, -0.32, 
509.0, -0.65, 
508.0, -0.52, 
507.0, -0.40, 
506.0, -0.28, 
505.0, -0.51, 
504.0, -0.50, 
503.0, -0.33, 
502.0, -0.82, 
501.0, -0.35, 
500.0, -0.66, 
499.0, -0.68, 
498.0, -0.23, 
497.0, -0.43, 
496.0, -0.50, 
495.0, -0.53, 
494.0, -0.61, 
493.0, -0.51, 
492.0, -0.27, 
491.0, -0.38, 
490.0, -0.10, 
489.0, -0.04, 
488.0, -0.15, 
487.0, 0.15, 
486.0, 0.39, 
485.0, 0.12, 
484.0, 0.28, 
483.0, 0.05, 
482.0, 0.68, 
481.0, 0.48, 
480.0, 0.61, 
479.0, 0.64, 
478.0, 0.35, 
477.0, 0.21, 
476.0, 0.26, 
475.0, -0.02, 
474.0, 0.33, 
473.0, 0.48, 
472.0, 0.08, 
471.0, 0.00, 
470.0, 0.03, 
469.0, 0.21, 
468.0, 0.14, 
467.0, 0.19, 
466.0, 0.18, 
465.0, 0.00, 
464.0, 0.03, 
463.0, -0.20, 
462.0, -0.39, 
461.0, -0.44, 
460.0, -0.33, 
459.0, -0.17, 
458.0, -0.42, 
457.0, -0.58, 
456.0, -0.81, 
455.0, -0.56, 
454.0, -0.18, 
453.0, -0.34, 
452.0, -0.36, 
451.0, -0.29, 
450.0, -0.45, 
449.0, -0.35, 
448.0, -0.45, 
447.0, -0.43, 
446.0, -0.52, 
445.0, -0.07, 
444.0, -0.09, 
443.0, -0.19, 
442.0, -0.07, 
441.0, -0.21, 
440.0, -0.13, 
439.0, -0.04, 
438.0, 0.14, 
437.0, 0.19, 
436.0, 0.13, 
435.0, -0.26, 
434.0, -0.37, 
433.0, -0.14, 
432.0, -0.09, 
431.0, -0.34, 
430.0, -0.31, 
429.0, -0.23, 
428.0, -0.08, 
427.0, -0.15, 
426.0, -0.11, 
425.0, 0.10, 
424.0, -0.11, 
423.0, -0.14, 
422.0, -0.01, 
421.0, 0.23, 
420.0, 0.20, 
419.0, -0.22, 
418.0, -0.20, 
417.0, -0.20, 
416.0, -0.30, 
415.0, -0.22, 
414.0, -0.34, 
413.0, -0.54, 
412.0, -0.40, 
411.0, 0.19, 
410.0, 0.01, 
409.0, -0.27, 
408.0, 0.03, 
407.0, -0.26, 
406.0, -0.33, 
405.0, 0.07, 
404.0, -0.22, 
403.0, -0.24, 
402.0, -0.03, 
401.0, -0.27, 
400.0, -0.28, 
