[Measurement conditions]
Sample identification,
Comment - 1,"Configuration=Chi-Phi-Z stage 240 mm (reflection), Owner=User-1, Creation date=10/23/2015 4:48:55 PM"
Comment - 2,"Goniometer=Theta/Theta; Minimum step size 2Theta:0.0001; Minimum step size Omega:0.0001"
Comment - 3,"Sample stage=Chi-Phi-z stage 240 mm (reflection); Minimum step size Phi:0.01; Minimum step size Chi:0.01; Minimum step size Z:0.001"
Comment - 4,"Diffractometer system=EMPYREAN"
Comment - 5,"Measurement program=C:\PANalytical\Data Collector\Programs\Yuki-Phi-scan.xrdmp, Identifier={48E3FB3F-1168-45E7-99C6-10C9CB5D9D97}"
Comment - 6,"Fine Calibration Offset for 2Theta = 0.0141 deg"
Comment - 7,"Fine Calibration Offset for Omega = 0.2992 deg"
Anode material,Cu
K-Alpha1 wavelength,1.5405980
K-Alpha2 wavelength,1.5444260
Ratio K-Alpha2/K-Alpha1,0.500
Divergence slit,Fixed,0.19mm
Monochromator used,NO
Generator voltage, 45
Tube current, 40
File date and time,26/Sep/2023 11:56
Unit cell,
h k l, 0 0 0
Scan axis,Phi
Scan range,0.000,360.000
Scan step size,0.2000000
No. of points, 1800
Scan type,CONTINUOUS
2Theta,34.0600
Omega,16.8577
Psi,26.57
Z,9.265
Time per step,0.176
[Scan points]
Angle, TimePerStep, Intensity
0.100, 0.176, 4.0
0.300, 0.176, 1.0
0.500, 0.176, 1.0
0.700, 0.176, 5.0
0.900, 0.176, 4.0
1.100, 0.176, 4.0
1.300, 0.176, 4.0
1.500, 0.176, 5.0
1.700, 0.176, 3.0
1.900, 0.176, 4.0
2.100, 0.176, 2.0
2.300, 0.176, 1.0
2.500, 0.176, 6.0
2.700, 0.176, 2.0
2.900, 0.176, 6.0
3.100, 0.176, 1.0
3.300, 0.176, 3.0
3.500, 0.176, 3.0
3.700, 0.176, 2.0
3.900, 0.176, 7.0
4.100, 0.176, 5.0
4.300, 0.176, 1.0
4.500, 0.176, 4.0
4.700, 0.176, 1.0
4.900, 0.176, 1.0
5.100, 0.176, 3.0
5.300, 0.176, 3.0
5.500, 0.176, 0.0
5.700, 0.176, 3.0
5.900, 0.176, 5.0
6.100, 0.176, 3.0
6.300, 0.176, 2.0
6.500, 0.176, 0.0
6.700, 0.176, 3.0
6.900, 0.176, 1.0
7.100, 0.176, 2.0
7.300, 0.176, 3.0
7.500, 0.176, 1.0
7.700, 0.176, 0.0
7.900, 0.176, 2.0
8.100, 0.176, 1.0
8.300, 0.176, 1.0
8.500, 0.176, 2.0
8.700, 0.176, 2.0
8.900, 0.176, 1.0
9.100, 0.176, 3.0
9.300, 0.176, 0.0
9.500, 0.176, 0.0
9.700, 0.176, 2.0
9.900, 0.176, 1.0
10.100, 0.176, 1.0
10.300, 0.176, 0.0
10.500, 0.176, 2.0
10.700, 0.176, 1.0
10.900, 0.176, 0.0
11.100, 0.176, 1.0
11.300, 0.176, 1.0
11.500, 0.176, 2.0
11.700, 0.176, 2.0
11.900, 0.176, 1.0
12.100, 0.176, 0.0
12.300, 0.176, 3.0
12.500, 0.176, 0.0
12.700, 0.176, 1.0
12.900, 0.176, 0.0
13.100, 0.176, 0.0
13.300, 0.176, 0.0
13.500, 0.176, 0.0
13.700, 0.176, 1.0
13.900, 0.176, 3.0
14.100, 0.176, 3.0
14.300, 0.176, 1.0
14.500, 0.176, 0.0
14.700, 0.176, 0.0
14.900, 0.176, 1.0
15.100, 0.176, 1.0
15.300, 0.176, 0.0
15.500, 0.176, 2.0
15.700, 0.176, 0.0
15.900, 0.176, 2.0
16.100, 0.176, 1.0
16.300, 0.176, 2.0
16.500, 0.176, 0.0
16.700, 0.176, 2.0
16.900, 0.176, 1.0
17.100, 0.176, 1.0
17.300, 0.176, 3.0
17.500, 0.176, 1.0
17.700, 0.176, 0.0
17.900, 0.176, 1.0
18.100, 0.176, 0.0
18.300, 0.176, 1.0
18.500, 0.176, 0.0
18.700, 0.176, 0.0
18.900, 0.176, 4.0
19.100, 0.176, 0.0
19.300, 0.176, 0.0
19.500, 0.176, 1.0
19.700, 0.176, 0.0
19.900, 0.176, 0.0
20.100, 0.176, 1.0
20.300, 0.176, 1.0
20.500, 0.176, 0.0
20.700, 0.176, 2.0
20.900, 0.176, 0.0
21.100, 0.176, 0.0
21.300, 0.176, 0.0
21.500, 0.176, 1.0
21.700, 0.176, 1.0
21.900, 0.176, 2.0
22.100, 0.176, 1.0
22.300, 0.176, 1.0
22.500, 0.176, 0.0
22.700, 0.176, 0.0
22.900, 0.176, 0.0
23.100, 0.176, 1.0
23.300, 0.176, 1.0
23.500, 0.176, 1.0
23.700, 0.176, 0.0
23.900, 0.176, 0.0
24.100, 0.176, 0.0
24.300, 0.176, 0.0
24.500, 0.176, 1.0
24.700, 0.176, 2.0
24.900, 0.176, 0.0
25.100, 0.176, 1.0
25.300, 0.176, 0.0
25.500, 0.176, 2.0
25.700, 0.176, 1.0
25.900, 0.176, 1.0
26.100, 0.176, 1.0
26.300, 0.176, 1.0
26.500, 0.176, 2.0
26.700, 0.176, 0.0
26.900, 0.176, 3.0
27.100, 0.176, 1.0
27.300, 0.176, 0.0
27.500, 0.176, 0.0
27.700, 0.176, 1.0
27.900, 0.176, 2.0
28.100, 0.176, 0.0
28.300, 0.176, 1.0
28.500, 0.176, 1.0
28.700, 0.176, 0.0
28.900, 0.176, 0.0
29.100, 0.176, 2.0
29.300, 0.176, 0.0
29.500, 0.176, 0.0
29.700, 0.176, 0.0
29.900, 0.176, 0.0
30.100, 0.176, 1.0
30.300, 0.176, 1.0
30.500, 0.176, 1.0
30.700, 0.176, 0.0
30.900, 0.176, 0.0
31.100, 0.176, 0.0
31.300, 0.176, 3.0
31.500, 0.176, 2.0
31.700, 0.176, 1.0
31.900, 0.176, 0.0
32.100, 0.176, 0.0
32.300, 0.176, 0.0
32.500, 0.176, 0.0
32.700, 0.176, 1.0
32.900, 0.176, 0.0
33.100, 0.176, 2.0
33.300, 0.176, 0.0
33.500, 0.176, 1.0
33.700, 0.176, 1.0
33.900, 0.176, 2.0
34.100, 0.176, 1.0
34.300, 0.176, 0.0
34.500, 0.176, 1.0
34.700, 0.176, 0.0
34.900, 0.176, 1.0
35.100, 0.176, 1.0
35.300, 0.176, 0.0
35.500, 0.176, 0.0
35.700, 0.176, 0.0
35.900, 0.176, 1.0
36.100, 0.176, 1.0
36.300, 0.176, 0.0
36.500, 0.176, 0.0
36.700, 0.176, 0.0
36.900, 0.176, 0.0
37.100, 0.176, 0.0
37.300, 0.176, 0.0
37.500, 0.176, 0.0
37.700, 0.176, 0.0
37.900, 0.176, 0.0
38.100, 0.176, 2.0
38.300, 0.176, 0.0
38.500, 0.176, 0.0
38.700, 0.176, 0.0
38.900, 0.176, 1.0
39.100, 0.176, 2.0
39.300, 0.176, 1.0
39.500, 0.176, 1.0
39.700, 0.176, 0.0
39.900, 0.176, 0.0
40.100, 0.176, 0.0
40.300, 0.176, 0.0
40.500, 0.176, 1.0
40.700, 0.176, 0.0
40.900, 0.176, 1.0
41.100, 0.176, 0.0
41.300, 0.176, 1.0
41.500, 0.176, 0.0
41.700, 0.176, 1.0
41.900, 0.176, 3.0
42.100, 0.176, 0.0
42.300, 0.176, 0.0
42.500, 0.176, 0.0
42.700, 0.176, 1.0
42.900, 0.176, 1.0
43.100, 0.176, 0.0
43.300, 0.176, 2.0
43.500, 0.176, 0.0
43.700, 0.176, 2.0
43.900, 0.176, 2.0
44.100, 0.176, 3.0
44.300, 0.176, 1.0
44.500, 0.176, 0.0
44.700, 0.176, 0.0
44.900, 0.176, 0.0
45.100, 0.176, 1.0
45.300, 0.176, 0.0
45.500, 0.176, 1.0
45.700, 0.176, 1.0
45.900, 0.176, 0.0
46.100, 0.176, 2.0
46.300, 0.176, 0.0
46.500, 0.176, 0.0
46.700, 0.176, 0.0
46.900, 0.176, 1.0
47.100, 0.176, 0.0
47.300, 0.176, 0.0
47.500, 0.176, 0.0
47.700, 0.176, 0.0
47.900, 0.176, 1.0
48.100, 0.176, 1.0
48.300, 0.176, 1.0
48.500, 0.176, 0.0
48.700, 0.176, 2.0
48.900, 0.176, 0.0
49.100, 0.176, 1.0
49.300, 0.176, 0.0
49.500, 0.176, 0.0
49.700, 0.176, 1.0
49.900, 0.176, 1.0
50.100, 0.176, 1.0
50.300, 0.176, 0.0
50.500, 0.176, 0.0
50.700, 0.176, 1.0
50.900, 0.176, 0.0
51.100, 0.176, 1.0
51.300, 0.176, 1.0
51.500, 0.176, 0.0
51.700, 0.176, 0.0
51.900, 0.176, 2.0
52.100, 0.176, 2.0
52.300, 0.176, 0.0
52.500, 0.176, 2.0
52.700, 0.176, 1.0
52.900, 0.176, 1.0
53.100, 0.176, 2.0
53.300, 0.176, 0.0
53.500, 0.176, 0.0
53.700, 0.176, 0.0
53.900, 0.176, 1.0
54.100, 0.176, 3.0
54.300, 0.176, 2.0
54.500, 0.176, 0.0
54.700, 0.176, 0.0
54.900, 0.176, 1.0
55.100, 0.176, 0.0
55.300, 0.176, 2.0
55.500, 0.176, 0.0
55.700, 0.176, 0.0
55.900, 0.176, 0.0
56.100, 0.176, 1.0
56.300, 0.176, 1.0
56.500, 0.176, 0.0
56.700, 0.176, 4.0
56.900, 0.176, 0.0
57.100, 0.176, 0.0
57.300, 0.176, 0.0
57.500, 0.176, 0.0
57.700, 0.176, 1.0
57.900, 0.176, 1.0
58.100, 0.176, 3.0
58.300, 0.176, 0.0
58.500, 0.176, 1.0
58.700, 0.176, 2.0
58.900, 0.176, 1.0
59.100, 0.176, 0.0
59.300, 0.176, 1.0
59.500, 0.176, 2.0
59.700, 0.176, 1.0
59.900, 0.176, 1.0
60.100, 0.176, 4.0
60.300, 0.176, 0.0
60.500, 0.176, 0.0
60.700, 0.176, 3.0
60.900, 0.176, 0.0
61.100, 0.176, 0.0
61.300, 0.176, 0.0
61.500, 0.176, 3.0
61.700, 0.176, 0.0
61.900, 0.176, 0.0
62.100, 0.176, 1.0
62.300, 0.176, 0.0
62.500, 0.176, 0.0
62.700, 0.176, 1.0
62.900, 0.176, 2.0
63.100, 0.176, 0.0
63.300, 0.176, 1.0
63.500, 0.176, 0.0
63.700, 0.176, 0.0
63.900, 0.176, 1.0
64.100, 0.176, 2.0
64.300, 0.176, 1.0
64.500, 0.176, 3.0
64.700, 0.176, 1.0
64.900, 0.176, 1.0
65.100, 0.176, 2.0
65.300, 0.176, 0.0
65.500, 0.176, 0.0
65.700, 0.176, 0.0
65.900, 0.176, 0.0
66.100, 0.176, 2.0
66.300, 0.176, 0.0
66.500, 0.176, 0.0
66.700, 0.176, 2.0
66.900, 0.176, 1.0
67.100, 0.176, 1.0
67.300, 0.176, 1.0
67.500, 0.176, 0.0
67.700, 0.176, 3.0
67.900, 0.176, 2.0
68.100, 0.176, 3.0
68.300, 0.176, 2.0
68.500, 0.176, 1.0
68.700, 0.176, 2.0
68.900, 0.176, 2.0
69.100, 0.176, 1.0
69.300, 0.176, 3.0
69.500, 0.176, 1.0
69.700, 0.176, 2.0
69.900, 0.176, 0.0
70.100, 0.176, 2.0
70.300, 0.176, 1.0
70.500, 0.176, 0.0
70.700, 0.176, 3.0
70.900, 0.176, 1.0
71.100, 0.176, 3.0
71.300, 0.176, 1.0
71.500, 0.176, 1.0
71.700, 0.176, 0.0
71.900, 0.176, 3.0
72.100, 0.176, 0.0
72.300, 0.176, 4.0
72.500, 0.176, 1.0
72.700, 0.176, 5.0
72.900, 0.176, 2.0
73.100, 0.176, 2.0
73.300, 0.176, 2.0
73.500, 0.176, 5.0
73.700, 0.176, 2.0
73.900, 0.176, 2.0
74.100, 0.176, 2.0
74.300, 0.176, 2.0
74.500, 0.176, 1.0
74.700, 0.176, 3.0
74.900, 0.176, 3.0
75.100, 0.176, 3.0
75.300, 0.176, 1.0
75.500, 0.176, 1.0
75.700, 0.176, 2.0
75.900, 0.176, 2.0
76.100, 0.176, 4.0
76.300, 0.176, 2.0
76.500, 0.176, 1.0
76.700, 0.176, 1.0
76.900, 0.176, 2.0
77.100, 0.176, 0.0
77.300, 0.176, 6.0
77.500, 0.176, 2.0
77.700, 0.176, 7.0
77.900, 0.176, 3.0
78.100, 0.176, 5.0
78.300, 0.176, 1.0
78.500, 0.176, 2.0
78.700, 0.176, 1.0
78.900, 0.176, 3.0
79.100, 0.176, 1.0
79.300, 0.176, 6.0
79.500, 0.176, 1.0
79.700, 0.176, 2.0
79.900, 0.176, 3.0
80.100, 0.176, 4.0
80.300, 0.176, 4.0
80.500, 0.176, 5.0
80.700, 0.176, 4.0
80.900, 0.176, 4.0
81.100, 0.176, 8.0
81.300, 0.176, 6.0
81.500, 0.176, 7.0
81.700, 0.176, 8.0
81.900, 0.176, 6.0
82.100, 0.176, 9.0
82.300, 0.176, 8.0
82.500, 0.176, 14.0
82.700, 0.176, 11.0
82.900, 0.176, 14.0
83.100, 0.176, 11.0
83.300, 0.176, 23.0
83.500, 0.176, 36.0
83.700, 0.176, 56.0
83.900, 0.176, 309.0
84.100, 0.176, 4470.0
84.300, 0.176, 8195.0
84.500, 0.176, 3071.0
84.700, 0.176, 90.0
84.900, 0.176, 21.0
85.100, 0.176, 21.0
85.300, 0.176, 13.0
85.500, 0.176, 11.0
85.700, 0.176, 10.0
85.900, 0.176, 14.0
86.100, 0.176, 9.0
86.300, 0.176, 9.0
86.500, 0.176, 1.0
86.700, 0.176, 18.0
86.900, 0.176, 2.0
87.100, 0.176, 6.0
87.300, 0.176, 2.0
87.500, 0.176, 3.0
87.700, 0.176, 3.0
87.900, 0.176, 4.0
88.100, 0.176, 3.0
88.300, 0.176, 2.0
88.500, 0.176, 5.0
88.700, 0.176, 1.0
88.900, 0.176, 2.0
89.100, 0.176, 2.0
89.300, 0.176, 4.0
89.500, 0.176, 2.0
89.700, 0.176, 3.0
89.900, 0.176, 5.0
90.100, 0.176, 3.0
90.300, 0.176, 3.0
90.500, 0.176, 1.0
90.700, 0.176, 3.0
90.900, 0.176, 2.0
91.100, 0.176, 4.0
91.300, 0.176, 1.0
91.500, 0.176, 3.0
91.700, 0.176, 2.0
91.900, 0.176, 2.0
92.100, 0.176, 3.0
92.300, 0.176, 3.0
92.500, 0.176, 2.0
92.700, 0.176, 1.0
92.900, 0.176, 0.0
93.100, 0.176, 2.0
93.300, 0.176, 0.0
93.500, 0.176, 2.0
93.700, 0.176, 1.0
93.900, 0.176, 1.0
94.100, 0.176, 0.0
94.300, 0.176, 1.0
94.500, 0.176, 3.0
94.700, 0.176, 1.0
94.900, 0.176, 2.0
95.100, 0.176, 1.0
95.300, 0.176, 1.0
95.500, 0.176, 1.0
95.700, 0.176, 0.0
95.900, 0.176, 3.0
96.100, 0.176, 3.0
96.300, 0.176, 0.0
96.500, 0.176, 1.0
96.700, 0.176, 0.0
96.900, 0.176, 2.0
97.100, 0.176, 0.0
97.300, 0.176, 2.0
97.500, 0.176, 2.0
97.700, 0.176, 0.0
97.900, 0.176, 3.0
98.100, 0.176, 2.0
98.300, 0.176, 1.0
98.500, 0.176, 2.0
98.700, 0.176, 1.0
98.900, 0.176, 1.0
99.100, 0.176, 2.0
99.300, 0.176, 3.0
99.500, 0.176, 1.0
99.700, 0.176, 0.0
99.900, 0.176, 0.0
100.100, 0.176, 0.0
100.300, 0.176, 0.0
100.500, 0.176, 1.0
100.700, 0.176, 0.0
100.900, 0.176, 1.0
101.100, 0.176, 0.0
101.300, 0.176, 1.0
101.500, 0.176, 2.0
101.700, 0.176, 0.0
101.900, 0.176, 1.0
102.100, 0.176, 2.0
102.300, 0.176, 0.0
102.500, 0.176, 2.0
102.700, 0.176, 1.0
102.900, 0.176, 1.0
103.100, 0.176, 0.0
103.300, 0.176, 0.0
103.500, 0.176, 0.0
103.700, 0.176, 0.0
103.900, 0.176, 1.0
104.100, 0.176, 0.0
104.300, 0.176, 1.0
104.500, 0.176, 2.0
104.700, 0.176, 0.0
104.900, 0.176, 1.0
105.100, 0.176, 2.0
105.300, 0.176, 1.0
105.500, 0.176, 1.0
105.700, 0.176, 1.0
105.900, 0.176, 3.0
106.100, 0.176, 1.0
106.300, 0.176, 1.0
106.500, 0.176, 0.0
106.700, 0.176, 0.0
106.900, 0.176, 0.0
107.100, 0.176, 1.0
107.300, 0.176, 0.0
107.500, 0.176, 0.0
107.700, 0.176, 1.0
107.900, 0.176, 0.0
108.100, 0.176, 1.0
108.300, 0.176, 0.0
108.500, 0.176, 1.0
108.700, 0.176, 2.0
108.900, 0.176, 0.0
109.100, 0.176, 2.0
109.300, 0.176, 2.0
109.500, 0.176, 2.0
109.700, 0.176, 0.0
109.900, 0.176, 2.0
110.100, 0.176, 1.0
110.300, 0.176, 0.0
110.500, 0.176, 0.0
110.700, 0.176, 2.0
110.900, 0.176, 1.0
111.100, 0.176, 0.0
111.300, 0.176, 3.0
111.500, 0.176, 1.0
111.700, 0.176, 1.0
111.900, 0.176, 0.0
112.100, 0.176, 0.0
112.300, 0.176, 0.0
112.500, 0.176, 0.0
112.700, 0.176, 1.0
112.900, 0.176, 0.0
113.100, 0.176, 0.0
113.300, 0.176, 2.0
113.500, 0.176, 1.0
113.700, 0.176, 0.0
113.900, 0.176, 1.0
114.100, 0.176, 0.0
114.300, 0.176, 1.0
114.500, 0.176, 2.0
114.700, 0.176, 1.0
114.900, 0.176, 0.0
115.100, 0.176, 1.0
115.300, 0.176, 2.0
115.500, 0.176, 0.0
115.700, 0.176, 1.0
115.900, 0.176, 0.0
116.100, 0.176, 0.0
116.300, 0.176, 0.0
116.500, 0.176, 1.0
116.700, 0.176, 1.0
116.900, 0.176, 0.0
117.100, 0.176, 0.0
117.300, 0.176, 1.0
117.500, 0.176, 2.0
117.700, 0.176, 1.0
117.900, 0.176, 0.0
118.100, 0.176, 2.0
118.300, 0.176, 1.0
118.500, 0.176, 0.0
118.700, 0.176, 0.0
118.900, 0.176, 1.0
119.100, 0.176, 2.0
119.300, 0.176, 0.0
119.500, 0.176, 0.0
119.700, 0.176, 1.0
119.900, 0.176, 2.0
120.100, 0.176, 0.0
120.300, 0.176, 0.0
120.500, 0.176, 0.0
120.700, 0.176, 0.0
120.900, 0.176, 0.0
121.100, 0.176, 0.0
121.300, 0.176, 4.0
121.500, 0.176, 0.0
121.700, 0.176, 0.0
121.900, 0.176, 0.0
122.100, 0.176, 1.0
122.300, 0.176, 0.0
122.500, 0.176, 1.0
122.700, 0.176, 0.0
122.900, 0.176, 2.0
123.100, 0.176, 0.0
123.300, 0.176, 0.0
123.500, 0.176, 0.0
123.700, 0.176, 0.0
123.900, 0.176, 0.0
124.100, 0.176, 0.0
124.300, 0.176, 3.0
124.500, 0.176, 1.0
124.700, 0.176, 1.0
124.900, 0.176, 0.0
125.100, 0.176, 0.0
125.300, 0.176, 0.0
125.500, 0.176, 2.0
125.700, 0.176, 0.0
125.900, 0.176, 1.0
126.100, 0.176, 0.0
126.300, 0.176, 1.0
126.500, 0.176, 0.0
126.700, 0.176, 0.0
126.900, 0.176, 1.0
127.100, 0.176, 1.0
127.300, 0.176, 0.0
127.500, 0.176, 0.0
127.700, 0.176, 0.0
127.900, 0.176, 1.0
128.100, 0.176, 2.0
128.300, 0.176, 0.0
128.500, 0.176, 0.0
128.700, 0.176, 1.0
128.900, 0.176, 0.0
129.100, 0.176, 0.0
129.300, 0.176, 0.0
129.500, 0.176, 1.0
129.700, 0.176, 0.0
129.900, 0.176, 0.0
130.100, 0.176, 0.0
130.300, 0.176, 0.0
130.500, 0.176, 1.0
130.700, 0.176, 1.0
130.900, 0.176, 2.0
131.100, 0.176, 1.0
131.300, 0.176, 2.0
131.500, 0.176, 1.0
131.700, 0.176, 0.0
131.900, 0.176, 2.0
132.100, 0.176, 0.0
132.300, 0.176, 3.0
132.500, 0.176, 0.0
132.700, 0.176, 1.0
132.900, 0.176, 2.0
133.100, 0.176, 0.0
133.300, 0.176, 0.0
133.500, 0.176, 3.0
133.700, 0.176, 0.0
133.900, 0.176, 0.0
134.100, 0.176, 2.0
134.300, 0.176, 2.0
134.500, 0.176, 0.0
134.700, 0.176, 0.0
134.900, 0.176, 0.0
135.100, 0.176, 0.0
135.300, 0.176, 1.0
135.500, 0.176, 0.0
135.700, 0.176, 1.0
135.900, 0.176, 0.0
136.100, 0.176, 0.0
136.300, 0.176, 0.0
136.500, 0.176, 0.0
136.700, 0.176, 1.0
136.900, 0.176, 3.0
137.100, 0.176, 1.0
137.300, 0.176, 1.0
137.500, 0.176, 1.0
137.700, 0.176, 0.0
137.900, 0.176, 2.0
138.100, 0.176, 0.0
138.300, 0.176, 0.0
138.500, 0.176, 1.0
138.700, 0.176, 0.0
138.900, 0.176, 0.0
139.100, 0.176, 0.0
139.300, 0.176, 0.0
139.500, 0.176, 0.0
139.700, 0.176, 0.0
139.900, 0.176, 1.0
140.100, 0.176, 2.0
140.300, 0.176, 1.0
140.500, 0.176, 2.0
140.700, 0.176, 0.0
140.900, 0.176, 0.0
141.100, 0.176, 0.0
141.300, 0.176, 0.0
141.500, 0.176, 2.0
141.700, 0.176, 0.0
141.900, 0.176, 0.0
142.100, 0.176, 0.0
142.300, 0.176, 0.0
142.500, 0.176, 0.0
142.700, 0.176, 3.0
142.900, 0.176, 3.0
143.100, 0.176, 4.0
143.300, 0.176, 0.0
143.500, 0.176, 1.0
143.700, 0.176, 1.0
143.900, 0.176, 2.0
144.100, 0.176, 2.0
144.300, 0.176, 0.0
144.500, 0.176, 0.0
144.700, 0.176, 0.0
144.900, 0.176, 1.0
145.100, 0.176, 0.0
145.300, 0.176, 0.0
145.500, 0.176, 1.0
145.700, 0.176, 1.0
145.900, 0.176, 0.0
146.100, 0.176, 0.0
146.300, 0.176, 0.0
146.500, 0.176, 1.0
146.700, 0.176, 0.0
146.900, 0.176, 0.0
147.100, 0.176, 2.0
147.300, 0.176, 0.0
147.500, 0.176, 1.0
147.700, 0.176, 2.0
147.900, 0.176, 0.0
148.100, 0.176, 0.0
148.300, 0.176, 1.0
148.500, 0.176, 0.0
148.700, 0.176, 0.0
148.900, 0.176, 0.0
149.100, 0.176, 5.0
149.300, 0.176, 1.0
149.500, 0.176, 3.0
149.700, 0.176, 0.0
149.900, 0.176, 1.0
150.100, 0.176, 1.0
150.300, 0.176, 2.0
150.500, 0.176, 1.0
150.700, 0.176, 2.0
150.900, 0.176, 1.0
151.100, 0.176, 0.0
151.300, 0.176, 1.0
151.500, 0.176, 1.0
151.700, 0.176, 0.0
151.900, 0.176, 2.0
152.100, 0.176, 1.0
152.300, 0.176, 0.0
152.500, 0.176, 0.0
152.700, 0.176, 0.0
152.900, 0.176, 0.0
153.100, 0.176, 0.0
153.300, 0.176, 0.0
153.500, 0.176, 0.0
153.700, 0.176, 1.0
153.900, 0.176, 0.0
154.100, 0.176, 0.0
154.300, 0.176, 1.0
154.500, 0.176, 2.0
154.700, 0.176, 2.0
154.900, 0.176, 1.0
155.100, 0.176, 2.0
155.300, 0.176, 1.0
155.500, 0.176, 4.0
155.700, 0.176, 1.0
155.900, 0.176, 1.0
156.100, 0.176, 1.0
156.300, 0.176, 3.0
156.500, 0.176, 0.0
156.700, 0.176, 2.0
156.900, 0.176, 1.0
157.100, 0.176, 1.0
157.300, 0.176, 2.0
157.500, 0.176, 1.0
157.700, 0.176, 1.0
157.900, 0.176, 1.0
158.100, 0.176, 0.0
158.300, 0.176, 1.0
158.500, 0.176, 1.0
158.700, 0.176, 0.0
158.900, 0.176, 1.0
159.100, 0.176, 4.0
159.300, 0.176, 2.0
159.500, 0.176, 2.0
159.700, 0.176, 1.0
159.900, 0.176, 0.0
160.100, 0.176, 1.0
160.300, 0.176, 0.0
160.500, 0.176, 1.0
160.700, 0.176, 3.0
160.900, 0.176, 1.0
161.100, 0.176, 2.0
161.300, 0.176, 3.0
161.500, 0.176, 1.0
161.700, 0.176, 3.0
161.900, 0.176, 0.0
162.100, 0.176, 2.0
162.300, 0.176, 0.0
162.500, 0.176, 2.0
162.700, 0.176, 0.0
162.900, 0.176, 0.0
163.100, 0.176, 3.0
163.300, 0.176, 1.0
163.500, 0.176, 4.0
163.700, 0.176, 0.0
163.900, 0.176, 1.0
164.100, 0.176, 5.0
164.300, 0.176, 1.0
164.500, 0.176, 0.0
164.700, 0.176, 3.0
164.900, 0.176, 2.0
165.100, 0.176, 2.0
165.300, 0.176, 0.0
165.500, 0.176, 5.0
165.700, 0.176, 3.0
165.900, 0.176, 3.0
166.100, 0.176, 2.0
166.300, 0.176, 2.0
166.500, 0.176, 2.0
166.700, 0.176, 1.0
166.900, 0.176, 3.0
167.100, 0.176, 3.0
167.300, 0.176, 2.0
167.500, 0.176, 4.0
167.700, 0.176, 2.0
167.900, 0.176, 2.0
168.100, 0.176, 3.0
168.300, 0.176, 8.0
168.500, 0.176, 5.0
168.700, 0.176, 4.0
168.900, 0.176, 6.0
169.100, 0.176, 5.0
169.300, 0.176, 6.0
169.500, 0.176, 3.0
169.700, 0.176, 5.0
169.900, 0.176, 4.0
170.100, 0.176, 8.0
170.300, 0.176, 4.0
170.500, 0.176, 9.0
170.700, 0.176, 6.0
170.900, 0.176, 4.0
171.100, 0.176, 6.0
171.300, 0.176, 8.0
171.500, 0.176, 7.0
171.700, 0.176, 8.0
171.900, 0.176, 9.0
172.100, 0.176, 14.0
172.300, 0.176, 14.0
172.500, 0.176, 22.0
172.700, 0.176, 19.0
172.900, 0.176, 29.0
173.100, 0.176, 35.0
173.300, 0.176, 84.0
173.500, 0.176, 382.0
173.700, 0.176, 5057.0
173.900, 0.176, 8718.0
174.100, 0.176, 3801.0
174.300, 0.176, 106.0
174.500, 0.176, 33.0
174.700, 0.176, 27.0
174.900, 0.176, 22.0
175.100, 0.176, 20.0
175.300, 0.176, 16.0
175.500, 0.176, 14.0
175.700, 0.176, 13.0
175.900, 0.176, 8.0
176.100, 0.176, 10.0
176.300, 0.176, 6.0
176.500, 0.176, 9.0
176.700, 0.176, 4.0
176.900, 0.176, 10.0
177.100, 0.176, 4.0
177.300, 0.176, 8.0
177.500, 0.176, 3.0
177.700, 0.176, 6.0
177.900, 0.176, 3.0
178.100, 0.176, 2.0
178.300, 0.176, 4.0
178.500, 0.176, 3.0
178.700, 0.176, 0.0
178.900, 0.176, 6.0
179.100, 0.176, 1.0
179.300, 0.176, 2.0
179.500, 0.176, 4.0
179.700, 0.176, 7.0
179.900, 0.176, 3.0
180.100, 0.176, 4.0
180.300, 0.176, 1.0
180.500, 0.176, 3.0
180.700, 0.176, 4.0
180.900, 0.176, 3.0
181.100, 0.176, 3.0
181.300, 0.176, 1.0
181.500, 0.176, 4.0
181.700, 0.176, 1.0
181.900, 0.176, 4.0
182.100, 0.176, 3.0
182.300, 0.176, 1.0
182.500, 0.176, 0.0
182.700, 0.176, 2.0
182.900, 0.176, 2.0
183.100, 0.176, 4.0
183.300, 0.176, 0.0
183.500, 0.176, 2.0
183.700, 0.176, 4.0
183.900, 0.176, 1.0
184.100, 0.176, 0.0
184.300, 0.176, 1.0
184.500, 0.176, 3.0
184.700, 0.176, 4.0
184.900, 0.176, 3.0
185.100, 0.176, 5.0
185.300, 0.176, 3.0
185.500, 0.176, 2.0
185.700, 0.176, 1.0
185.900, 0.176, 1.0
186.100, 0.176, 0.0
186.300, 0.176, 3.0
186.500, 0.176, 2.0
186.700, 0.176, 1.0
186.900, 0.176, 5.0
187.100, 0.176, 0.0
187.300, 0.176, 1.0
187.500, 0.176, 3.0
187.700, 0.176, 1.0
187.900, 0.176, 0.0
188.100, 0.176, 1.0
188.300, 0.176, 2.0
188.500, 0.176, 2.0
188.700, 0.176, 1.0
188.900, 0.176, 1.0
189.100, 0.176, 1.0
189.300, 0.176, 2.0
189.500, 0.176, 2.0
189.700, 0.176, 2.0
189.900, 0.176, 0.0
190.100, 0.176, 1.0
190.300, 0.176, 1.0
190.500, 0.176, 0.0
190.700, 0.176, 1.0
190.900, 0.176, 0.0
191.100, 0.176, 0.0
191.300, 0.176, 1.0
191.500, 0.176, 1.0
191.700, 0.176, 1.0
191.900, 0.176, 1.0
192.100, 0.176, 1.0
192.300, 0.176, 1.0
192.500, 0.176, 1.0
192.700, 0.176, 1.0
192.900, 0.176, 1.0
193.100, 0.176, 0.0
193.300, 0.176, 2.0
193.500, 0.176, 0.0
193.700, 0.176, 0.0
193.900, 0.176, 0.0
194.100, 0.176, 0.0
194.300, 0.176, 1.0
194.500, 0.176, 0.0
194.700, 0.176, 1.0
194.900, 0.176, 0.0
195.100, 0.176, 0.0
195.300, 0.176, 1.0
195.500, 0.176, 0.0
195.700, 0.176, 1.0
195.900, 0.176, 1.0
196.100, 0.176, 0.0
196.300, 0.176, 2.0
196.500, 0.176, 1.0
196.700, 0.176, 1.0
196.900, 0.176, 0.0
197.100, 0.176, 0.0
197.300, 0.176, 0.0
197.500, 0.176, 3.0
197.700, 0.176, 2.0
197.900, 0.176, 1.0
198.100, 0.176, 0.0
198.300, 0.176, 0.0
198.500, 0.176, 1.0
198.700, 0.176, 0.0
198.900, 0.176, 0.0
199.100, 0.176, 0.0
199.300, 0.176, 0.0
199.500, 0.176, 2.0
199.700, 0.176, 0.0
199.900, 0.176, 0.0
200.100, 0.176, 2.0
200.300, 0.176, 0.0
200.500, 0.176, 2.0
200.700, 0.176, 2.0
200.900, 0.176, 0.0
201.100, 0.176, 0.0
201.300, 0.176, 0.0
201.500, 0.176, 0.0
201.700, 0.176, 0.0
201.900, 0.176, 0.0
202.100, 0.176, 2.0
202.300, 0.176, 1.0
202.500, 0.176, 2.0
202.700, 0.176, 0.0
202.900, 0.176, 1.0
203.100, 0.176, 1.0
203.300, 0.176, 0.0
203.500, 0.176, 0.0
203.700, 0.176, 0.0
203.900, 0.176, 2.0
204.100, 0.176, 1.0
204.300, 0.176, 0.0
204.500, 0.176, 1.0
204.700, 0.176, 0.0
204.900, 0.176, 1.0
205.100, 0.176, 1.0
205.300, 0.176, 0.0
205.500, 0.176, 0.0
205.700, 0.176, 1.0
205.900, 0.176, 2.0
206.100, 0.176, 2.0
206.300, 0.176, 0.0
206.500, 0.176, 0.0
206.700, 0.176, 2.0
206.900, 0.176, 1.0
207.100, 0.176, 0.0
207.300, 0.176, 0.0
207.500, 0.176, 0.0
207.700, 0.176, 0.0
207.900, 0.176, 0.0
208.100, 0.176, 0.0
208.300, 0.176, 1.0
208.500, 0.176, 0.0
208.700, 0.176, 0.0
208.900, 0.176, 0.0
209.100, 0.176, 0.0
209.300, 0.176, 3.0
209.500, 0.176, 0.0
209.700, 0.176, 0.0
209.900, 0.176, 1.0
210.100, 0.176, 0.0
210.300, 0.176, 1.0
210.500, 0.176, 2.0
210.700, 0.176, 0.0
210.900, 0.176, 2.0
211.100, 0.176, 3.0
211.300, 0.176, 1.0
211.500, 0.176, 1.0
211.700, 0.176, 1.0
211.900, 0.176, 3.0
212.100, 0.176, 0.0
212.300, 0.176, 1.0
212.500, 0.176, 0.0
212.700, 0.176, 1.0
212.900, 0.176, 1.0
213.100, 0.176, 1.0
213.300, 0.176, 1.0
213.500, 0.176, 1.0
213.700, 0.176, 3.0
213.900, 0.176, 0.0
214.100, 0.176, 0.0
214.300, 0.176, 2.0
214.500, 0.176, 0.0
214.700, 0.176, 1.0
214.900, 0.176, 0.0
215.100, 0.176, 3.0
215.300, 0.176, 0.0
215.500, 0.176, 0.0
215.700, 0.176, 1.0
215.900, 0.176, 1.0
216.100, 0.176, 0.0
216.300, 0.176, 0.0
216.500, 0.176, 1.0
216.700, 0.176, 0.0
216.900, 0.176, 1.0
217.100, 0.176, 1.0
217.300, 0.176, 0.0
217.500, 0.176, 0.0
217.700, 0.176, 0.0
217.900, 0.176, 0.0
218.100, 0.176, 0.0
218.300, 0.176, 0.0
218.500, 0.176, 0.0
218.700, 0.176, 2.0
218.900, 0.176, 0.0
219.100, 0.176, 0.0
219.300, 0.176, 0.0
219.500, 0.176, 1.0
219.700, 0.176, 1.0
219.900, 0.176, 0.0
220.100, 0.176, 0.0
220.300, 0.176, 1.0
220.500, 0.176, 0.0
220.700, 0.176, 1.0
220.900, 0.176, 1.0
221.100, 0.176, 2.0
221.300, 0.176, 0.0
221.500, 0.176, 3.0
221.700, 0.176, 0.0
221.900, 0.176, 2.0
222.100, 0.176, 0.0
222.300, 0.176, 0.0
222.500, 0.176, 2.0
222.700, 0.176, 0.0
222.900, 0.176, 0.0
223.100, 0.176, 0.0
223.300, 0.176, 0.0
223.500, 0.176, 0.0
223.700, 0.176, 1.0
223.900, 0.176, 0.0
224.100, 0.176, 0.0
224.300, 0.176, 1.0
224.500, 0.176, 0.0
224.700, 0.176, 3.0
224.900, 0.176, 0.0
225.100, 0.176, 1.0
225.300, 0.176, 0.0
225.500, 0.176, 2.0
225.700, 0.176, 0.0
225.900, 0.176, 0.0
226.100, 0.176, 2.0
226.300, 0.176, 0.0
226.500, 0.176, 1.0
226.700, 0.176, 1.0
226.900, 0.176, 0.0
227.100, 0.176, 0.0
227.300, 0.176, 2.0
227.500, 0.176, 1.0
227.700, 0.176, 0.0
227.900, 0.176, 0.0
228.100, 0.176, 3.0
228.300, 0.176, 1.0
228.500, 0.176, 0.0
228.700, 0.176, 0.0
228.900, 0.176, 2.0
229.100, 0.176, 3.0
229.300, 0.176, 0.0
229.500, 0.176, 2.0
229.700, 0.176, 0.0
229.900, 0.176, 0.0
230.100, 0.176, 1.0
230.300, 0.176, 0.0
230.500, 0.176, 2.0
230.700, 0.176, 0.0
230.900, 0.176, 0.0
231.100, 0.176, 0.0
231.300, 0.176, 1.0
231.500, 0.176, 0.0
231.700, 0.176, 0.0
231.900, 0.176, 0.0
232.100, 0.176, 1.0
232.300, 0.176, 1.0
232.500, 0.176, 1.0
232.700, 0.176, 0.0
232.900, 0.176, 0.0
233.100, 0.176, 0.0
233.300, 0.176, 0.0
233.500, 0.176, 1.0
233.700, 0.176, 0.0
233.900, 0.176, 0.0
234.100, 0.176, 2.0
234.300, 0.176, 0.0
234.500, 0.176, 0.0
234.700, 0.176, 0.0
234.900, 0.176, 1.0
235.100, 0.176, 0.0
235.300, 0.176, 2.0
235.500, 0.176, 1.0
235.700, 0.176, 2.0
235.900, 0.176, 0.0
236.100, 0.176, 3.0
236.300, 0.176, 0.0
236.500, 0.176, 2.0
236.700, 0.176, 1.0
236.900, 0.176, 1.0
237.100, 0.176, 3.0
237.300, 0.176, 0.0
237.500, 0.176, 1.0
237.700, 0.176, 2.0
237.900, 0.176, 0.0
238.100, 0.176, 0.0
238.300, 0.176, 0.0
238.500, 0.176, 0.0
238.700, 0.176, 2.0
238.900, 0.176, 3.0
239.100, 0.176, 0.0
239.300, 0.176, 2.0
239.500, 0.176, 0.0
239.700, 0.176, 1.0
239.900, 0.176, 0.0
240.100, 0.176, 0.0
240.300, 0.176, 2.0
240.500, 0.176, 0.0
240.700, 0.176, 0.0
240.900, 0.176, 0.0
241.100, 0.176, 4.0
241.300, 0.176, 0.0
241.500, 0.176, 0.0
241.700, 0.176, 0.0
241.900, 0.176, 1.0
242.100, 0.176, 1.0
242.300, 0.176, 0.0
242.500, 0.176, 1.0
242.700, 0.176, 0.0
242.900, 0.176, 0.0
243.100, 0.176, 0.0
243.300, 0.176, 1.0
243.500, 0.176, 0.0
243.700, 0.176, 1.0
243.900, 0.176, 1.0
244.100, 0.176, 2.0
244.300, 0.176, 1.0
244.500, 0.176, 0.0
244.700, 0.176, 3.0
244.900, 0.176, 0.0
245.100, 0.176, 0.0
245.300, 0.176, 1.0
245.500, 0.176, 2.0
245.700, 0.176, 1.0
245.900, 0.176, 0.0
246.100, 0.176, 1.0
246.300, 0.176, 0.0
246.500, 0.176, 0.0
246.700, 0.176, 1.0
246.900, 0.176, 0.0
247.100, 0.176, 2.0
247.300, 0.176, 1.0
247.500, 0.176, 0.0
247.700, 0.176, 1.0
247.900, 0.176, 0.0
248.100, 0.176, 4.0
248.300, 0.176, 5.0
248.500, 0.176, 2.0
248.700, 0.176, 1.0
248.900, 0.176, 0.0
249.100, 0.176, 2.0
249.300, 0.176, 0.0
249.500, 0.176, 1.0
249.700, 0.176, 1.0
249.900, 0.176, 2.0
250.100, 0.176, 1.0
250.300, 0.176, 1.0
250.500, 0.176, 2.0
250.700, 0.176, 2.0
250.900, 0.176, 0.0
251.100, 0.176, 4.0
251.300, 0.176, 2.0
251.500, 0.176, 0.0
251.700, 0.176, 3.0
251.900, 0.176, 6.0
252.100, 0.176, 1.0
252.300, 0.176, 1.0
252.500, 0.176, 2.0
252.700, 0.176, 3.0
252.900, 0.176, 1.0
253.100, 0.176, 2.0
253.300, 0.176, 4.0
253.500, 0.176, 3.0
253.700, 0.176, 4.0
253.900, 0.176, 1.0
254.100, 0.176, 3.0
254.300, 0.176, 4.0
254.500, 0.176, 3.0
254.700, 0.176, 3.0
254.900, 0.176, 3.0
255.100, 0.176, 1.0
255.300, 0.176, 0.0
255.500, 0.176, 3.0
255.700, 0.176, 5.0
255.900, 0.176, 3.0
256.100, 0.176, 3.0
256.300, 0.176, 2.0
256.500, 0.176, 1.0
256.700, 0.176, 1.0
256.900, 0.176, 3.0
257.100, 0.176, 3.0
257.300, 0.176, 0.0
257.500, 0.176, 5.0
257.700, 0.176, 2.0
257.900, 0.176, 4.0
258.100, 0.176, 5.0
258.300, 0.176, 3.0
258.500, 0.176, 2.0
258.700, 0.176, 1.0
258.900, 0.176, 4.0
259.100, 0.176, 4.0
259.300, 0.176, 6.0
259.500, 0.176, 4.0
259.700, 0.176, 5.0
259.900, 0.176, 9.0
260.100, 0.176, 3.0
260.300, 0.176, 3.0
260.500, 0.176, 7.0
260.700, 0.176, 7.0
260.900, 0.176, 6.0
261.100, 0.176, 3.0
261.300, 0.176, 4.0
261.500, 0.176, 10.0
261.700, 0.176, 10.0
261.900, 0.176, 6.0
262.100, 0.176, 11.0
262.300, 0.176, 10.0
262.500, 0.176, 6.0
262.700, 0.176, 12.0
262.900, 0.176, 15.0
263.100, 0.176, 11.0
263.300, 0.176, 8.0
263.500, 0.176, 13.0
263.700, 0.176, 25.0
263.900, 0.176, 45.0
264.100, 0.176, 85.0
264.300, 0.176, 855.0
264.500, 0.176, 6655.0
264.700, 0.176, 9838.0
264.900, 0.176, 2498.0
265.100, 0.176, 63.0
265.300, 0.176, 19.0
265.500, 0.176, 29.0
265.700, 0.176, 15.0
265.900, 0.176, 15.0
266.100, 0.176, 12.0
266.300, 0.176, 15.0
266.500, 0.176, 6.0
266.700, 0.176, 9.0
266.900, 0.176, 9.0
267.100, 0.176, 7.0
267.300, 0.176, 5.0
267.500, 0.176, 10.0
267.700, 0.176, 6.0
267.900, 0.176, 3.0
268.100, 0.176, 7.0
268.300, 0.176, 5.0
268.500, 0.176, 2.0
268.700, 0.176, 4.0
268.900, 0.176, 2.0
269.100, 0.176, 4.0
269.300, 0.176, 1.0
269.500, 0.176, 7.0
269.700, 0.176, 4.0
269.900, 0.176, 4.0
270.100, 0.176, 2.0
270.300, 0.176, 3.0
270.500, 0.176, 2.0
270.700, 0.176, 4.0
270.900, 0.176, 4.0
271.100, 0.176, 3.0
271.300, 0.176, 4.0
271.500, 0.176, 2.0
271.700, 0.176, 1.0
271.900, 0.176, 5.0
272.100, 0.176, 5.0
272.300, 0.176, 0.0
272.500, 0.176, 6.0
272.700, 0.176, 2.0
272.900, 0.176, 2.0
273.100, 0.176, 1.0
273.300, 0.176, 0.0
273.500, 0.176, 2.0
273.700, 0.176, 3.0
273.900, 0.176, 0.0
274.100, 0.176, 1.0
274.300, 0.176, 2.0
274.500, 0.176, 3.0
274.700, 0.176, 2.0
274.900, 0.176, 2.0
275.100, 0.176, 1.0
275.300, 0.176, 2.0
275.500, 0.176, 0.0
275.700, 0.176, 0.0
275.900, 0.176, 1.0
276.100, 0.176, 0.0
276.300, 0.176, 1.0
276.500, 0.176, 2.0
276.700, 0.176, 0.0
276.900, 0.176, 0.0
277.100, 0.176, 0.0
277.300, 0.176, 0.0
277.500, 0.176, 1.0
277.700, 0.176, 1.0
277.900, 0.176, 0.0
278.100, 0.176, 3.0
278.300, 0.176, 0.0
278.500, 0.176, 1.0
278.700, 0.176, 1.0
278.900, 0.176, 1.0
279.100, 0.176, 0.0
279.300, 0.176, 1.0
279.500, 0.176, 1.0
279.700, 0.176, 0.0
279.900, 0.176, 0.0
280.100, 0.176, 1.0
280.300, 0.176, 2.0
280.500, 0.176, 1.0
280.700, 0.176, 2.0
280.900, 0.176, 3.0
281.100, 0.176, 0.0
281.300, 0.176, 3.0
281.500, 0.176, 0.0
281.700, 0.176, 0.0
281.900, 0.176, 3.0
282.100, 0.176, 1.0
282.300, 0.176, 3.0
282.500, 0.176, 2.0
282.700, 0.176, 0.0
282.900, 0.176, 1.0
283.100, 0.176, 3.0
283.300, 0.176, 1.0
283.500, 0.176, 0.0
283.700, 0.176, 2.0
283.900, 0.176, 1.0
284.100, 0.176, 1.0
284.300, 0.176, 0.0
284.500, 0.176, 1.0
284.700, 0.176, 2.0
284.900, 0.176, 1.0
285.100, 0.176, 0.0
285.300, 0.176, 0.0
285.500, 0.176, 0.0
285.700, 0.176, 2.0
285.900, 0.176, 2.0
286.100, 0.176, 0.0
286.300, 0.176, 2.0
286.500, 0.176, 0.0
286.700, 0.176, 1.0
286.900, 0.176, 3.0
287.100, 0.176, 1.0
287.300, 0.176, 0.0
287.500, 0.176, 0.0
287.700, 0.176, 0.0
287.900, 0.176, 1.0
288.100, 0.176, 1.0
288.300, 0.176, 0.0
288.500, 0.176, 1.0
288.700, 0.176, 0.0
288.900, 0.176, 2.0
289.100, 0.176, 0.0
289.300, 0.176, 0.0
289.500, 0.176, 2.0
289.700, 0.176, 1.0
289.900, 0.176, 0.0
290.100, 0.176, 1.0
290.300, 0.176, 0.0
290.500, 0.176, 0.0
290.700, 0.176, 0.0
290.900, 0.176, 0.0
291.100, 0.176, 0.0
291.300, 0.176, 0.0
291.500, 0.176, 1.0
291.700, 0.176, 0.0
291.900, 0.176, 0.0
292.100, 0.176, 1.0
292.300, 0.176, 0.0
292.500, 0.176, 0.0
292.700, 0.176, 2.0
292.900, 0.176, 1.0
293.100, 0.176, 1.0
293.300, 0.176, 0.0
293.500, 0.176, 0.0
293.700, 0.176, 1.0
293.900, 0.176, 1.0
294.100, 0.176, 0.0
294.300, 0.176, 0.0
294.500, 0.176, 0.0
294.700, 0.176, 0.0
294.900, 0.176, 1.0
295.100, 0.176, 1.0
295.300, 0.176, 0.0
295.500, 0.176, 0.0
295.700, 0.176, 2.0
295.900, 0.176, 1.0
296.100, 0.176, 2.0
296.300, 0.176, 0.0
296.500, 0.176, 0.0
296.700, 0.176, 0.0
296.900, 0.176, 0.0
297.100, 0.176, 2.0
297.300, 0.176, 0.0
297.500, 0.176, 1.0
297.700, 0.176, 0.0
297.900, 0.176, 0.0
298.100, 0.176, 0.0
298.300, 0.176, 3.0
298.500, 0.176, 1.0
298.700, 0.176, 0.0
298.900, 0.176, 2.0
299.100, 0.176, 2.0
299.300, 0.176, 2.0
299.500, 0.176, 1.0
299.700, 0.176, 1.0
299.900, 0.176, 0.0
300.100, 0.176, 0.0
300.300, 0.176, 0.0
300.500, 0.176, 1.0
300.700, 0.176, 1.0
300.900, 0.176, 1.0
301.100, 0.176, 1.0
301.300, 0.176, 0.0
301.500, 0.176, 1.0
301.700, 0.176, 0.0
301.900, 0.176, 1.0
302.100, 0.176, 2.0
302.300, 0.176, 0.0
302.500, 0.176, 0.0
302.700, 0.176, 0.0
302.900, 0.176, 1.0
303.100, 0.176, 0.0
303.300, 0.176, 1.0
303.500, 0.176, 1.0
303.700, 0.176, 1.0
303.900, 0.176, 0.0
304.100, 0.176, 0.0
304.300, 0.176, 0.0
304.500, 0.176, 1.0
304.700, 0.176, 0.0
304.900, 0.176, 0.0
305.100, 0.176, 0.0
305.300, 0.176, 1.0
305.500, 0.176, 0.0
305.700, 0.176, 1.0
305.900, 0.176, 1.0
306.100, 0.176, 0.0
306.300, 0.176, 0.0
306.500, 0.176, 0.0
306.700, 0.176, 0.0
306.900, 0.176, 0.0
307.100, 0.176, 1.0
307.300, 0.176, 0.0
307.500, 0.176, 0.0
307.700, 0.176, 4.0
307.900, 0.176, 0.0
308.100, 0.176, 0.0
308.300, 0.176, 1.0
308.500, 0.176, 0.0
308.700, 0.176, 0.0
308.900, 0.176, 1.0
309.100, 0.176, 2.0
309.300, 0.176, 1.0
309.500, 0.176, 0.0
309.700, 0.176, 0.0
309.900, 0.176, 2.0
310.100, 0.176, 0.0
310.300, 0.176, 0.0
310.500, 0.176, 0.0
310.700, 0.176, 0.0
310.900, 0.176, 1.0
311.100, 0.176, 0.0
311.300, 0.176, 0.0
311.500, 0.176, 0.0
311.700, 0.176, 0.0
311.900, 0.176, 0.0
312.100, 0.176, 0.0
312.300, 0.176, 0.0
312.500, 0.176, 0.0
312.700, 0.176, 2.0
312.900, 0.176, 0.0
313.100, 0.176, 0.0
313.300, 0.176, 2.0
313.500, 0.176, 0.0
313.700, 0.176, 0.0
313.900, 0.176, 0.0
314.100, 0.176, 1.0
314.300, 0.176, 0.0
314.500, 0.176, 1.0
314.700, 0.176, 1.0
314.900, 0.176, 0.0
315.100, 0.176, 0.0
315.300, 0.176, 2.0
315.500, 0.176, 0.0
315.700, 0.176, 0.0
315.900, 0.176, 0.0
316.100, 0.176, 0.0
316.300, 0.176, 0.0
316.500, 0.176, 0.0
316.700, 0.176, 1.0
316.900, 0.176, 0.0
317.100, 0.176, 3.0
317.300, 0.176, 0.0
317.500, 0.176, 3.0
317.700, 0.176, 0.0
317.900, 0.176, 0.0
318.100, 0.176, 0.0
318.300, 0.176, 2.0
318.500, 0.176, 1.0
318.700, 0.176, 4.0
318.900, 0.176, 1.0
319.100, 0.176, 0.0
319.300, 0.176, 0.0
319.500, 0.176, 1.0
319.700, 0.176, 1.0
319.900, 0.176, 2.0
320.100, 0.176, 0.0
320.300, 0.176, 0.0
320.500, 0.176, 0.0
320.700, 0.176, 0.0
320.900, 0.176, 0.0
321.100, 0.176, 0.0
321.300, 0.176, 0.0
321.500, 0.176, 1.0
321.700, 0.176, 0.0
321.900, 0.176, 0.0
322.100, 0.176, 0.0
322.300, 0.176, 0.0
322.500, 0.176, 0.0
322.700, 0.176, 1.0
322.900, 0.176, 1.0
323.100, 0.176, 0.0
323.300, 0.176, 0.0
323.500, 0.176, 0.0
323.700, 0.176, 1.0
323.900, 0.176, 0.0
324.100, 0.176, 0.0
324.300, 0.176, 0.0
324.500, 0.176, 0.0
324.700, 0.176, 2.0
324.900, 0.176, 0.0
325.100, 0.176, 1.0
325.300, 0.176, 1.0
325.500, 0.176, 1.0
325.700, 0.176, 3.0
325.900, 0.176, 1.0
326.100, 0.176, 2.0
326.300, 0.176, 0.0
326.500, 0.176, 0.0
326.700, 0.176, 3.0
326.900, 0.176, 0.0
327.100, 0.176, 0.0
327.300, 0.176, 2.0
327.500, 0.176, 0.0
327.700, 0.176, 1.0
327.900, 0.176, 1.0
328.100, 0.176, 0.0
328.300, 0.176, 0.0
328.500, 0.176, 4.0
328.700, 0.176, 1.0
328.900, 0.176, 2.0
329.100, 0.176, 0.0
329.300, 0.176, 1.0
329.500, 0.176, 1.0
329.700, 0.176, 1.0
329.900, 0.176, 0.0
330.100, 0.176, 1.0
330.300, 0.176, 2.0
330.500, 0.176, 0.0
330.700, 0.176, 0.0
330.900, 0.176, 1.0
331.100, 0.176, 1.0
331.300, 0.176, 0.0
331.500, 0.176, 1.0
331.700, 0.176, 1.0
331.900, 0.176, 1.0
332.100, 0.176, 0.0
332.300, 0.176, 2.0
332.500, 0.176, 1.0
332.700, 0.176, 1.0
332.900, 0.176, 2.0
333.100, 0.176, 3.0
333.300, 0.176, 1.0
333.500, 0.176, 0.0
333.700, 0.176, 1.0
333.900, 0.176, 0.0
334.100, 0.176, 0.0
334.300, 0.176, 0.0
334.500, 0.176, 3.0
334.700, 0.176, 0.0
334.900, 0.176, 0.0
335.100, 0.176, 3.0
335.300, 0.176, 1.0
335.500, 0.176, 0.0
335.700, 0.176, 0.0
335.900, 0.176, 0.0
336.100, 0.176, 0.0
336.300, 0.176, 0.0
336.500, 0.176, 1.0
336.700, 0.176, 0.0
336.900, 0.176, 0.0
337.100, 0.176, 0.0
337.300, 0.176, 0.0
337.500, 0.176, 3.0
337.700, 0.176, 1.0
337.900, 0.176, 1.0
338.100, 0.176, 2.0
338.300, 0.176, 2.0
338.500, 0.176, 1.0
338.700, 0.176, 3.0
338.900, 0.176, 1.0
339.100, 0.176, 0.0
339.300, 0.176, 2.0
339.500, 0.176, 0.0
339.700, 0.176, 0.0
339.900, 0.176, 1.0
340.100, 0.176, 3.0
340.300, 0.176, 2.0
340.500, 0.176, 0.0
340.700, 0.176, 0.0
340.900, 0.176, 2.0
341.100, 0.176, 3.0
341.300, 0.176, 0.0
341.500, 0.176, 0.0
341.700, 0.176, 3.0
341.900, 0.176, 1.0
342.100, 0.176, 1.0
342.300, 0.176, 1.0
342.500, 0.176, 2.0
342.700, 0.176, 1.0
342.900, 0.176, 0.0
343.100, 0.176, 2.0
343.300, 0.176, 2.0
343.500, 0.176, 4.0
343.700, 0.176, 2.0
343.900, 0.176, 0.0
344.100, 0.176, 1.0
344.300, 0.176, 0.0
344.500, 0.176, 3.0
344.700, 0.176, 0.0
344.900, 0.176, 0.0
345.100, 0.176, 0.0
345.300, 0.176, 3.0
345.500, 0.176, 1.0
345.700, 0.176, 2.0
345.900, 0.176, 1.0
346.100, 0.176, 2.0
346.300, 0.176, 2.0
346.500, 0.176, 0.0
346.700, 0.176, 2.0
346.900, 0.176, 1.0
347.100, 0.176, 1.0
347.300, 0.176, 1.0
347.500, 0.176, 1.0
347.700, 0.176, 4.0
347.900, 0.176, 4.0
348.100, 0.176, 1.0
348.300, 0.176, 3.0
348.500, 0.176, 2.0
348.700, 0.176, 2.0
348.900, 0.176, 1.0
349.100, 0.176, 1.0
349.300, 0.176, 0.0
349.500, 0.176, 2.0
349.700, 0.176, 2.0
349.900, 0.176, 5.0
350.100, 0.176, 1.0
350.300, 0.176, 3.0
350.500, 0.176, 3.0
350.700, 0.176, 3.0
350.900, 0.176, 6.0
351.100, 0.176, 5.0
351.300, 0.176, 9.0
351.500, 0.176, 4.0
351.700, 0.176, 5.0
351.900, 0.176, 7.0
352.100, 0.176, 8.0
352.300, 0.176, 10.0
352.500, 0.176, 10.0
352.700, 0.176, 8.0
352.900, 0.176, 7.0
353.100, 0.176, 7.0
353.300, 0.176, 11.0
353.500, 0.176, 6.0
353.700, 0.176, 5.0
353.900, 0.176, 18.0
354.100, 0.176, 26.0
354.300, 0.176, 40.0
354.500, 0.176, 78.0
354.700, 0.176, 920.0
354.900, 0.176, 5986.0
355.100, 0.176, 8536.0
355.300, 0.176, 2027.0
355.500, 0.176, 70.0
355.700, 0.176, 29.0
355.900, 0.176, 19.0
356.100, 0.176, 19.0
356.300, 0.176, 15.0
356.500, 0.176, 15.0
356.700, 0.176, 13.0
356.900, 0.176, 14.0
357.100, 0.176, 9.0
357.300, 0.176, 9.0
357.500, 0.176, 6.0
357.700, 0.176, 4.0
357.900, 0.176, 7.0
358.100, 0.176, 4.0
358.300, 0.176, 7.0
358.500, 0.176, 8.0
358.700, 0.176, 4.0
358.900, 0.176, 4.0
359.100, 0.176, 2.0
359.300, 0.176, 5.0
359.500, 0.176, 6.0
359.700, 0.176, 8.0
359.900, 0.176, 5.0
