,Time (s),J (nA/cm2),bkg,J-bkg
0,0.35869380000031015,2029.2586363636365,2029.0775072972972,0.18112906633928105
1,0.8600079000002516,2029.2204545454547,2029.0553911567297,0.16506338872500237
2,1.3658171000001857,2029.2,2029.03327502189,0.16672497811009634
3,1.8801267000003428,2029.199318181818,2029.0111589037251,0.18815927809282584
4,2.381430800000089,2029.1661363636367,2028.9890428184544,0.17709354518228793
5,2.895600800000011,2029.0906818181818,2028.9669267882466,0.12375502993518239
6,3.3968190000000504,2029.0909090909092,2028.94481084087,0.14609825003913102
7,3.909564600000067,2028.9875,2028.9226950080074,0.06480499199255974
8,4.424732000000404,2028.954772727273,2028.900579325961,0.05419340131197714
9,4.940143300000273,2028.8893181818185,2028.8784638330817,0.010854348736756947
10,5.453361600000335,2028.9188636363638,2028.856348569435,0.06251506692865405
11,5.955829400000312,2028.8552272727272,2028.8342335754294,0.02099369729785394
12,6.469669600000088,2028.8384090909094,2028.8121188934513,0.02629019745813821
13,6.971927300000061,2028.8250000000005,2028.7900045665497,0.034995433450831115
14,7.487089600000218,2028.753181818182,2028.767890638605,-0.01470882042303856
15,7.988995400000022,2028.753181818182,2028.7457771546042,0.007404663577744941
16,8.503709999999963,2028.7161363636362,2028.723664113486,-0.0075277498497143824
17,9.00618200000008,2028.6615909090908,2028.7015515144233,-0.03996060533245327
18,9.51791110000022,2028.6940909090908,2028.6794393330224,0.014651576068445138
19,10.019679100000303,2028.6277272727275,2028.657327419787,-0.029600147059454684
20,10.532331900000372,2028.649318181818,2028.6352156256844,0.01410255613359368
21,11.036615300000001,2028.5711363636367,2028.6131037090136,-0.041967345376860976
22,11.549659600000268,2028.5877272727273,2028.5909914285196,-0.003264155792294332
23,12.065301900000122,2028.5477272727273,2028.5688784115616,-0.02115113883428421
24,12.567479000000283,2028.524090909091,2028.54676427528,-0.02267336618911031
25,13.08023030000004,2028.5243181818182,2028.5246485705973,-0.00033038877904800756
26,13.582850500000397,2028.4693181818182,2028.5025307774542,-0.03321259563608692
27,14.095326699999987,2028.4700000000003,2028.4804103747572,-0.010410374756929741
28,14.597825499999999,2028.459090909091,2028.458286737435,0.0008041716560001078
29,15.11124400000017,2028.3959090909093,2028.4361592078255,-0.040250116916240586
30,15.615340500000002,2028.3625,2028.4140271282938,-0.05152712829385564
31,16.130429000000277,2028.3570454545456,2028.3918897151952,-0.03484426064960644
32,16.645732000000407,2028.3602272727273,2028.3697460235705,-0.009518750843199086
33,17.145940800000062,2028.3236363636368,2028.3475949993758,-0.02395863573906354
34,17.660667200000262,2028.2961363636364,2028.3254355587667,-0.029299195130306543
35,18.162416399999984,2028.2675,2028.3032665428927,-0.03576654289281578
36,18.6766719000002,2028.2206818181821,2028.2810867011788,-0.060404882996635934
37,19.185675900000206,2028.2136363636366,2028.2588946710762,-0.04525830743955339
38,19.69408680000015,2028.2034090909094,2028.23668890093,-0.03327981002053093
39,20.194179700000397,2028.1613636363636,2028.2144676973962,-0.053104061032627214
40,20.694316600000093,2028.1572727272726,2028.1922292629426,-0.034956535670062294
41,21.20916860000034,2028.1711363636366,2028.1699716337876,0.0011647298490515823
42,21.724640900000402,2028.1570454545456,2028.147692736711,0.009352717834644864
43,22.2246911000002,2028.0720454545456,2028.1253904985297,-0.053345043984109
44,22.739662800000133,2028.0740909090907,2028.1030628463566,-0.02897193726585101
45,23.254287800000384,2028.0697727272727,2028.0807075402993,-0.010934813026551637
46,23.756791200000407,2028.0409090909095,2028.058322249765,-0.01741315885556105
47,24.261496400000397,2028.028409090909,2028.0359046099281,-0.00749551901913037
48,24.76288740000018,2028.0220454545456,2028.0134522014482,0.008593253097387787
49,25.265677600000345,2028.0079545454546,2027.9909625815192,0.016991963935424792
50,25.77022070000021,2027.9731818181817,2027.968433307606,0.004748510575836917
51,26.270990500000153,2027.9352272727274,2027.945861937711,-0.010634664983626863
52,26.776252600000127,2027.9468181818181,2027.9232460299868,0.02357215183133121
53,27.296206500000153,2027.9045454545453,2027.9005831092927,0.003962345252602972
54,27.809082800000397,2027.8913636363638,2027.8778707012343,0.01349293512953409
55,28.319871500000318,2027.8934090909092,2027.855106331541,0.03830275936820726
56,28.834713700000073,2027.8747727272728,2027.8322875263702,0.04248520090254715
57,29.34519040000032,2027.8481818181817,2027.8094118130903,0.038770005091464554
58,29.869760800000222,2027.816363636364,2027.7864767204126,0.0298869159514652
59,30.386079000000336,2027.7645454545452,2027.7634797782734,0.0010656762717644597
60,30.90355670000008,2027.794090909091,2027.7404185175549,0.05367239153611081
61,31.41478640000014,2027.7925000000002,2027.7172904691727,0.07520953082757842
62,31.928569300000163,2027.779318181818,2027.69409316574,0.08522501607808408
63,32.440671700000166,2027.7295454545458,2027.670824142248,0.05872131229784827
64,32.95690220000006,2027.6947727272727,2027.6474809363829,0.04729179088985802
65,33.47134600000027,2027.6922727272727,2027.6240610876873,0.06821163958534271
66,33.9894118000002,2027.7115909090908,2027.6005621371992,0.11102877189159699
67,34.510009900000114,2027.8293181818183,2027.576981628114,0.2523365537042537
68,35.05713990000004,2027.7879545454546,2027.55331710714,0.23463743831462125
69,35.60317150000037,2027.7525000000003,2027.5295661289638,0.22293387103650275
70,36.13429980000001,2027.7,2027.5057262556938,0.19427374430620148
71,36.65898960000004,2027.6713636363636,2027.481795056488,0.18956857987564035
72,37.200319700000364,2027.6279545454547,2027.4577701066464,0.17018443880829182
73,37.72649470000033,2027.6481818181821,2027.4336489874647,0.2145328307174168
74,38.25513210000008,2027.5804545454548,2027.4094292856173,0.17102525983750638
75,38.78587500000003,2027.5484090909092,2027.385108594563,0.1633004963462099
76,39.3181039000001,2027.560681818182,2027.3606845131717,0.19999730501035629
77,39.85143580000022,2027.4997727272732,2027.3361546454757,0.1636180817974946
78,40.39257680000037,2027.5127272727275,2027.3115166018338,0.20121067089371536
79,40.94338370000014,2027.5563636363636,2027.2867679977771,0.26959563858645197
80,41.490521400000034,2027.491590909091,2027.261906455203,0.22968445388801229
81,42.032618000000184,2027.4643181818183,2027.2369296045324,0.2273885772858648
82,42.57056700000021,2027.4588636363635,2027.2118350834498,0.24702855291366177
83,43.104648400000315,2027.4411363636368,2027.1866205368292,0.2545158268076193
84,43.66114880000032,2027.4404545454547,2027.161283617356,0.27917092809866517
85,44.19205020000027,2027.4297727272728,2027.1358219857646,0.29395074150829714
86,44.73961020000024,2027.4018181818185,2027.1102333116175,0.2915848702009498
87,45.28899860000001,2027.3913636363638,2027.0845152737731,0.30684836259069925
88,45.84073000000035,2027.3618181818183,2027.05866556031,0.3031526215083886
89,46.38351230000035,2027.3495454545455,2027.0326818690105,0.31686358553497485
90,46.92935830000033,2027.3231818181819,2027.006561907244,0.3166199109377885
91,47.47500470000023,2027.335681818182,2026.9803033923988,0.3553784257831012
92,48.023240400000304,2027.3036363636365,2026.9539040518755,0.3497323117610449
93,48.58799590000035,2027.259772727273,2026.9273616243129,0.33241110296012266
94,49.150701000000026,2027.263863636364,2026.9006738594085,0.36318977695555077
95,49.69651910000039,2027.2943181818182,2026.8738385173715,0.4204796644467024
96,50.26004120000016,2027.2434090909092,2026.8468533698963,0.3965557210128736
97,50.80353930000001,2027.228863636364,2026.8197162019735,0.4091474343904338
98,51.347481100000095,2027.2222727272729,2026.7924248111344,0.4298479161384421
99,51.90079930000002,2027.1620454545455,2026.764977007849,0.397068446696494
100,52.45545990000028,2027.1702272727275,2026.7373706161798,0.43285665654775585
101,53.00348210000038,2027.164772727273,2026.7096034727467,0.455169254526254
102,53.54946680000012,2027.1509090909094,2026.6816734278568,0.46923566305258646
103,54.10922800000026,2027.1561363636367,2026.6535783462111,0.5025580174255992
104,54.65618620000032,2027.151590909091,2026.62531610735,0.5262748017410104
105,55.20177039999999,2027.1009090909095,2026.596884606706,0.5040244842034554
106,55.75520600000027,2027.1236363636365,2026.5682817563536,0.5553546072828794
107,56.31409440000016,2027.125,2026.539505484306,0.5854945156941085
108,56.866053600000214,2027.0515909090911,2026.5105537361374,0.5410371729537928
109,57.4279061000002,2027.0984090909092,2026.4814244759382,0.6169846149709883
110,57.99033840000038,2027.0536363636368,2026.4521156849066,0.6015206787301395
111,58.564871100000346,2027.0152272727273,2026.4226253637523,0.5926019089749843
112,59.11975100000018,2027.0084090909093,2026.392951532207,0.6154575587022464
113,59.67907110000033,2027.0036363636366,2026.3630922287423,0.6405441348942986
114,60.253558800000064,2027.0006818181819,2026.3330455112916,0.6676363068902447
115,60.833974300000136,2027.5747727272728,2026.3028094580445,1.2719632692283085
116,61.3862350000004,2026.9456818181823,2026.272382168304,0.673299649878345
117,61.938016700000404,2027.5788636363638,2026.2417617815954,1.3371018547684344
118,62.49966200000016,2026.8729545454548,2026.2109464587359,0.6620080867189699
119,63.07439810000004,2026.92,2026.1799344028257,0.7400655971744072
120,63.637961900000406,2040.9704545454547,2026.1487238378995,14.821730707555162
121,64.20129640000005,2038.709772727273,2026.1173130113957,12.59245971587734
122,64.76301009999996,2034.589545454546,2026.085700639456,8.503844815089906
123,65.32771440000032,2034.0579545454543,2026.0538858364314,8.004068709022931
124,65.89576950000036,2033.9311363636368,2026.0218679855875,7.909268378049319
125,66.50008290000004,2033.6236363636365,2025.9896467233013,7.63398964033513
126,67.07317520000016,2033.5802272727276,2025.9572219360632,7.6230053366643915
127,67.63856200000008,2033.3525,2025.9245937517717,7.4279062482282825
128,68.20867560000032,2033.1750000000002,2025.8917625393856,7.2832374606146
129,68.77495290000024,2033.011590909091,2025.8587289027541,7.152862006336818
130,69.3441630000002,2032.930681818182,2025.8254936760425,7.105188142139468
131,69.91180460000032,2032.6927272727278,2025.7920579196089,6.9006693531189285
132,70.4845166,2032.5418181818184,2025.7584229184974,6.7833952633209265
133,71.07857300000023,2032.465909090909,2025.724590175971,6.74131891493812
134,71.64613080000026,2032.4413636363636,2025.6905614098016,6.750802226561973
135,72.21946500000011,2032.4502272727273,2025.6563385509417,6.793888721785606
136,72.78823950000016,2032.2384090909093,2025.621923743822,6.616485347087291
137,73.36744260000025,2032.1129545454546,2025.587319347716,6.525635197738666
138,73.9475023,2032.081363636364,2025.552527931129,6.528835705234997
139,74.52362800000036,2031.9995454545456,2025.5175522689244,6.48199318562115
140,75.11864250000008,2031.9643181818183,2025.4823953424263,6.4819228393919275
141,75.69750710000017,2031.7575000000002,2025.4470603379364,6.3104396620638
142,76.27546400000028,2031.7606818181819,2025.4115506467335,6.3491311714483345
143,76.8557267000001,2031.728181818182,2025.3758698596503,6.3523119585318
144,77.42837400000008,2031.6804545454545,2025.3400217682968,6.34043277715773
145,78.0161377000004,2031.4561363636365,2025.304010365162,6.152125998474503
146,78.5990299,2031.4695454545458,2025.2678398432354,6.2017056113104445
147,79.2003321000002,2031.3622727272727,2025.2315145900538,6.130758137218891
148,79.7823257,2031.4415909090908,2025.1950391892692,6.246551719821582
149,80.3844820000004,2031.3706818181818,2025.1584184184046,6.212263399777157
150,80.9786841,2031.361590909091,2025.1216572525166,6.239933656574522
151,81.56316220000008,2031.1845454545457,2025.0847608631107,6.099784591435082
152,82.14859430000024,2031.1870454545453,2025.0477346190164,6.139310835528931
153,82.73830190000037,2031.1204545454548,2025.0105840819565,6.109870463498282
154,83.32375660000024,2031.109772727273,2024.9733150077948,6.1364577194781305
155,83.9138979000004,2030.9629545454547,2024.9359333456066,6.02702119984815
156,84.50265470000022,2030.9718181818184,2024.8984452385187,6.073372943299773
157,85.09929860000013,2030.8965909090912,2024.8608570202493,6.035733888841833
158,85.69883100000015,2030.8247727272728,2024.823175216574,6.00159751069873
159,86.3067403,2030.8118181818181,2024.7854065441356,6.026411637682486
160,86.90242690000014,2030.7565909090913,2024.7475579093639,6.009032999727424
161,87.51019680000036,2030.7427272727273,2024.7096364092608,6.033090863466441
162,88.12315179999996,2030.7118181818184,2024.6716493308509,6.040168850967575
163,88.73424280000016,2030.5663636363638,2024.633604151941,5.9327594844228315
164,89.33543150000014,2030.662272727273,2024.5955085413443,6.066764185928605
165,89.93604670000012,2030.6225,2024.5573703554846,6.065129644515309
166,90.5353242000001,2030.5297727272725,2024.519197642633,6.01057508463964
167,91.13886850000016,2030.481590909091,2024.4809986428575,6.000592266233525
168,91.77069960000016,2030.4011363636366,2024.4427817862972,5.958354577339378
169,92.36567560000005,2030.3056818181817,2024.4045556928465,5.901126125335168
170,92.97606740000036,2030.32,2024.366329170819,5.953670829180965
171,93.58620100000007,2030.208181818182,2024.3281112151383,5.880070603043805
172,94.2000524,2021.9786363636367,2024.289911009,-2.3112746453632553
173,94.79708590000018,2023.1597727272729,2024.2517379215442,-1.0919651942713244
174,95.39776690000008,2023.6093181818183,2024.2135940861072,-0.6042759042888974
175,95.99515629999996,2023.8186363636366,2024.175478217459,-0.3568418538222886
176,96.59567620000009,2023.9761363636367,2024.1373871385904,-0.16125077495371443
177,97.21630200000028,2024.1140909090911,2024.0993165553439,0.014774353747270652
178,97.8318803000002,2024.1718181818183,2024.0612616687417,0.11055651307651715
179,98.43198510000002,2024.2388636363637,2024.0232176802745,0.2156459560892472
180,99.04259420000017,2024.231590909091,2023.9851797949286,0.24641111416235617
181,99.65185610000026,2024.2972727272727,2023.9471432245114,0.3501295027613196
182,100.26014010000017,2024.346363636364,2023.9091031886207,0.437260447743256
183,100.87329560000035,2024.3413636363637,2023.8710549179273,0.47030871843639943
184,101.48405330000014,2024.403409090909,2023.832993656928,0.5704154339809975
185,102.10963300000003,2024.4075000000003,2023.7949146649935,0.61258533500677
186,102.72014050000007,2024.407954545455,2023.7568132195308,0.6511413259240726
187,103.33079010000029,2024.4411363636366,2023.71868461732,0.7224517463166649
188,103.94614450000017,2024.4120454545455,2023.6805241757309,0.7315212788146255
189,104.57294760000013,2024.4379545454544,2023.6423272349793,0.7956273104750835
190,105.19475409999995,2024.4293181818184,2023.604089158415,0.8252290234033808
191,105.80712930000027,2024.4813636363638,2023.5658053345464,0.9155583018173274
192,106.43494450000026,2024.4750000000001,2023.5274711779787,0.9475288220214679
193,107.05869840000014,2024.4365909090911,2023.4890821322692,0.9475087768219055
194,107.69500260000041,2024.4679545454549,2023.4506336709387,1.0173208745161446
195,108.34473700000035,2024.457272727273,2023.4121212974694,1.0451514298035818
196,108.97685060000003,2024.4597727272726,2023.3735405475145,1.086232179758099
197,109.60092460000033,2024.4618181818187,2023.3348869897764,1.1269311920423206
198,110.2278652,2024.4559090909095,2023.2961562273072,1.1597528636023071
199,110.85445140000002,2024.4400000000003,2023.2573438987952,1.1826561012051116
200,111.47678930000029,2024.4629545454547,2023.2184456796042,1.2445088658505483
201,112.10858110000026,2024.4099999999999,2023.1794572824972,1.230542717502658
202,112.73224170000003,2024.4529545454545,2023.1403744595914,1.3125800858631465
203,113.3607020000004,2024.4370454545456,2023.1011930019174,1.3358524526281599
204,113.98096720000012,2024.4029545454543,2023.0619087420132,1.3410458034411477
205,114.60931260000007,2024.4052272727272,2023.0225175546605,1.3827097180667351
206,115.24020480000036,2024.4165909090912,2022.9830153570483,1.4335755520428393
207,115.8709189000001,2024.3797727272731,2022.9433981100908,1.4363746171823095
208,116.51085300000022,2024.4177272727272,2022.9036618200355,1.5140654526917388
209,117.1429779,2024.3925000000004,2022.8638025385524,1.5286974614480187
210,117.78068220000023,2024.3990909090912,2022.8238163651902,1.5752745439010596
211,118.43564430000015,2024.3815909090913,2022.7836994478403,1.597891461251038
212,119.08120800000006,2024.3731818181818,2022.743447984208,1.6297338339738872
213,119.72457040000018,2024.3363636363638,2022.7030582225293,1.6333054138344778
214,120.3565294,2024.3068181818185,2022.6625264625775,1.6442917192409823
215,120.99487620000036,2024.9163636363637,2022.621849055774,2.294514580589748
216,121.63853700000027,2024.2927272727275,2022.5810224055388,1.7117048671887005
217,122.2910925000001,2024.8311363636367,2022.5400429878507,2.2910933757859766
218,122.93219960000033,2024.268181818182,2022.498907332818,1.7692744853641216
219,123.5728196,2024.3018181818184,2022.4576120429995,1.8442061388188904
220,124.21507540000039,2045.0543181818184,2022.4161537769046,22.638164404913823
221,124.86422790000006,2038.1961363636365,2022.3745292513613,15.82160711227516
222,125.5217131000004,2037.000681818182,2022.3327358990791,14.667945919102976
223,126.19621150000012,2036.4820454545452,2022.2907716530922,14.191273801453008
224,126.83854920000022,2035.8975,2022.2486349102746,13.648865089725405
225,127.48913290000019,2035.4547727272727,2022.2063245162688,13.24844821100396
226,128.14566130000003,2035.1825000000001,2022.163839748332,13.018660251668052
227,128.7962453,2035.0388636363637,2022.1211803026752,12.917683333688501
228,129.446504,2034.8704545454548,2022.0783462871939,12.792108258260896
229,130.10802600000034,2034.638409090909,2022.0353382182775,12.603070872631406
230,130.7671967000001,2034.3034090909093,2021.9921570168374,12.311252074071945
231,131.4259508,2034.1495454545457,2021.948804002329,12.200741452216562
232,132.10577880000028,2034.1340909090911,2021.905280883524,12.2288100255671
233,132.76157690000036,2033.948181818182,2021.8615897550146,12.086592063167473
234,133.4194748,2033.7854545454547,2021.817733098102,11.967721447352687
235,134.08934850000014,2033.6695454545454,2021.7737137762988,11.895831678246623
236,134.74627370000007,2033.5868181818182,2021.7295350315696,11.857283150248577
237,135.41054930000018,2033.4079545454547,2021.6852004820594,11.722754063395314
238,136.0686582000003,2033.2463636363636,2021.6407141208729,11.605649515490768
239,136.74537260000034,2033.1568181818184,2021.5960803118228,11.560737869995592
240,137.40602480000007,2033.109090909091,2021.5513037857236,11.557787123367461
241,138.0821116000002,2032.8720454545455,2021.506389638972,11.365655815573518
242,138.75798810000015,2032.9195454545454,2021.461343333455,11.45820212109038
243,139.4214860000002,2032.6595454545457,2021.416170690472,11.243374764073678
244,140.08509300000014,2032.7575000000002,2021.3708778936636,11.386622106336517
245,140.7651017000003,2032.5604545454546,2021.325471482218,11.234983063236541
246,141.42783240000017,2032.4197727272726,2021.2799583553992,11.139814371873399
247,142.10367580000002,2032.3195454545455,2021.2343457677507,11.085199686794795
248,142.77174690000038,2032.2577272727274,2021.1886413260875,11.069085946639916
249,143.44583720000037,2032.1636363636364,2021.14285298777,11.020783375866358
250,144.11952980000024,2032.0872727272726,2021.0969890601928,10.990283667079893
251,144.7825015000003,2031.9709090909096,2021.0510581992578,10.919850891651777
252,145.44813320000003,2032.0643181818182,2021.0050694084107,11.05924877340749
253,146.1370622000004,2031.8600000000001,2020.959032036413,10.900967963587163
254,146.80417290000014,2031.8397727272727,2020.9129557817496,10.926816945523115
