,Time (s),J (nA/cm2),bkg,J-bkg
0,0.3583254000004672,5243.102272727273,5240.5544322923,2.5478404349732955
1,0.8725701999992452,5242.727272727273,5240.311900302602,2.4153724246707498
2,1.3862740999993548,5242.188636363637,5240.069368393473,2.1192679701634916
3,1.9011809999992693,5241.9340909090915,5239.826836721864,2.107254187227227
4,2.40375689999928,5241.497727272727,5239.58430551174,1.9134217609871484
5,2.9050000999995973,5241.161363636364,5239.341775053703,1.8195885826607991
6,3.406356199999209,5240.915909090909,5239.099245698861,1.8166633920482127
7,3.919893799999045,5240.668181818182,5238.856717855864,1.8114639623181574
8,4.432939799999083,5240.302272727274,5238.61419199081,1.6880807364641441
9,4.93825889999971,5239.929545454545,5238.371668627077,1.5578768274681352
10,5.449400100000275,5239.638636363637,5238.12914834143,1.509488022206824
11,5.951883499999894,5239.234090909091,5237.886631759894,1.3474591491967658
12,6.467126100000321,5239.006818181818,5237.644119556234,1.3626986255840166
13,6.968168600000354,5238.888636363637,5237.401612446821,1.487023916815815
14,7.48295859999962,5238.361363636364,5237.1591111911175,1.2022524452468133
15,7.99636719999944,5237.963636363636,5236.91661659561,1.0470197680260753
16,8.498354400000608,5237.859090909092,5236.674129504804,1.1849614042876055
17,9.013525099999242,5237.443181818182,5236.431650796314,1.0115310218679952
18,9.531784400000106,5237.127272727273,5236.189181385225,0.9380913420473007
19,10.051757400000497,5236.645454545455,5235.946722218613,0.6987323268422188
20,10.5610130999994,5236.654545454546,5235.704274273216,0.9502711813302085
21,11.075152499999597,5236.372727272727,5235.461838547867,0.9108887248603423
22,11.575958499999615,5235.884090909091,5235.219416071451,0.6646748376406322
23,12.088347200000499,5235.581818181819,5234.977007901653,0.6048102801651112
24,12.593672099999822,5235.409090909091,5234.734615117182,0.6744757919086624
25,13.09539570000016,5235.111363636364,5234.492238815869,0.619124820495017
26,13.609895300000062,5234.74090909091,5234.249880116872,0.4910289740373628
27,14.12381490000007,5234.534090909091,5234.007540158931,0.5265507501599132
28,14.638221299999714,5234.222727272728,5233.765220096311,0.4575071764165841
29,15.139245799999117,5233.875,5233.522921099928,0.35207890007222886
30,15.644575899999843,5233.765909090909,5233.280644355167,0.485264735742021
31,16.156355600000097,5233.461363636364,5233.038391058547,0.42297257781683584
32,16.66949559999921,5233.072727272727,5232.796162421934,0.27656485079296544
33,17.170429399999193,5232.906818181818,5232.553959670569,0.35285851124899636
34,17.68627860000015,5232.634090909091,5232.31178403844,0.3223068706511185
35,18.189263399999618,5232.313636363637,5232.069636770691,0.2439995929453289
36,18.698308799999722,5231.995454545455,5231.82751912266,0.16793542279447138
37,19.201243699999402,5231.872727272727,5231.585432357398,0.2872949153297668
38,19.714844100000846,5231.472727272728,5231.3433777432665,0.12934952946125122
39,20.23416779999934,5231.265909090909,5231.101356557714,0.1645525331950921
40,20.73776799999905,5230.852272727273,5230.859370082281,-0.007097355008227169
41,21.23843669999951,5230.743181818182,5230.61741960371,0.12576221447216085
42,21.739169799999218,5230.3431818181825,5230.375506386526,-0.03232456834302866
43,22.24397820000013,5230.206818181819,5230.133631699227,0.07318648259115434
44,22.74763840000014,5229.920454545455,5229.891796709119,0.02865783633569663
45,23.253345699999045,5229.75,5229.650002585819,0.09999741418141639
46,23.7576083999993,5229.370454545455,5229.40825049985,-0.03779595439482364
47,24.269836600000417,5229.145454545455,5229.166541624897,-0.021087079441713286
48,24.779892700000346,5228.940909090909,5228.924877016322,0.01603207458720135
49,25.286040299999513,5228.74090909091,5228.683257663468,0.05765142744166951
50,25.796686600000612,5228.568181818182,5228.4416845561855,0.12649726199651923
51,26.308310500000523,5228.352272727273,5228.200158686151,0.1521140411223314
52,26.82167389999995,5228.043181818181,5227.958681049038,0.0845007691432329
53,27.337401000000682,5227.781818181818,5227.717252645336,0.06456553648240515
54,27.852892999999312,5227.561363636364,5227.475874478202,0.08548915816209046
55,28.367487499999697,5227.304545454545,5227.234547552837,0.06999790170812048
56,28.882039500000246,5226.918181818181,5226.993272877144,-0.07509105896224355
57,29.404729699999727,5226.727272727273,5226.752051461239,-0.024778733965831634
58,29.933423000000403,5226.431818181819,5226.510884080155,-0.07906589833601174
59,30.46906590000072,5226.356818181818,5226.269771431353,0.08704675046556076
60,31.00488039999982,5226.086363636365,5226.028713964765,0.057649671599392605
61,31.5320885000001,5225.8772727272735,5225.787712133078,0.08956059419597295
62,32.05605169999944,5225.604545454546,5225.5467663907975,0.057779063748057524
63,32.57806080000046,5225.397727272728,5225.305877195266,0.09185007746236806
64,33.09111099999973,5225.120454545455,5225.065045005647,0.05540953980744234
65,33.60648530000071,5224.9,5224.824270284016,0.07572971598347067
66,34.122735200000534,5224.606818181818,5224.583553494194,0.023264687623850477
67,34.63910709999982,5224.452272727272,5224.3428951024,0.1093776248726499
68,35.156668399999035,5224.206818181818,5224.102295575584,0.10452260623333132
69,35.679592700000285,5223.822727272727,5223.8617553841605,-0.0390281114332538
70,36.2014094999995,5223.972727272728,5223.621275001842,0.35145227088560205
71,36.71454749999975,5223.479545454546,5223.38085478016,0.09869067438557977
72,37.235769799999616,5223.220454545454,5223.140495081756,0.07995946369828744
73,37.75914840000041,5223.09090909091,5222.900196272395,0.19071281851483946
74,38.2833114999994,5223.0590909090915,5222.659958720369,0.39913218872243306
75,38.82648110000082,5222.656818181819,5222.4197828000015,0.2370353818178046
76,39.35309749999942,5222.338636363636,5222.17966889824,0.15896746539601736
77,39.877080000000205,5222.415909090909,5221.939617409525,0.47629168138337263
78,40.39927220000027,5221.975,5221.699628733326,0.2753712666744832
79,40.934122700000444,5221.781818181818,5221.459703284171,0.322114897647225
80,41.46033759999955,5221.629545454546,5221.2198414853,0.40970396924603847
81,41.99776220000058,5221.5,5220.980043770137,0.5199562298630553
82,42.52670349999971,5221.306818181818,5220.740310585064,0.5665075967535813
83,43.06777739999961,5220.8090909090915,5220.500642392907,0.3084485161843986
84,43.610608499999216,5220.65,5220.261039674405,0.38896032559478044
85,44.14949770000021,5220.488636363636,5220.021502920054,0.4671334435815879
86,44.682884699999704,5220.238636363637,5219.782032632651,0.4566037309859894
87,45.230147000000215,5219.99090909091,5219.542629329764,0.44827976114538615
88,45.77227089999906,5219.729545454546,5219.303293543407,0.4262519111389338
89,46.30903430000035,5219.597727272728,5219.064025819766,0.5337014529613953
90,46.84740469999997,5219.431818181819,5218.82482671851,0.6069914633089866
91,47.387288899999476,5219.1,5218.585696816181,0.5143031838197203
92,47.96375909999915,5218.820454545455,5218.3466367085175,0.4738178369370871
93,48.524142700000084,5218.684090909091,5218.107647007522,0.576443901568382
94,49.07921969999916,5218.481818181818,5217.868728340171,0.6130898416467971
95,49.627445300000545,5218.145454545455,5217.629881351673,0.5155731937820747
96,50.171947400000136,5218.177272727274,5217.39110670662,0.7861660206535817
97,50.745543299999554,5217.806818181818,5217.152405085908,0.6544130959100585
98,51.28798579999966,5217.693181818182,5216.913777195296,0.7794046228864318
99,51.85912169999938,5217.368181818182,5216.675223761234,0.6929580569485552
100,52.40009590000045,5217.131818181819,5216.436745534824,0.6950726469949586
101,52.951557300000786,5216.884090909091,5216.198343289071,0.6857476200202655
102,53.48706019999918,5216.961363636364,5215.960017818968,1.0013458173962135
103,54.02393139999913,5216.556818181818,5215.721769941187,0.8350482406312949
104,54.58069660000001,5216.409090909091,5215.483600504072,0.9254904050194455
105,55.139816599999904,5216.045454545455,5215.245510382367,0.7999441630881847
106,55.699735500000315,5215.756818181819,5215.007500480089,0.7493177017295238
107,56.261967799999184,5215.563636363637,5214.769571726556,0.7940646370807372
108,56.81083699999908,5215.461363636364,5214.531725074778,0.9296385615862164
109,57.35516540000026,5215.252272727273,5214.293961502875,0.9583112243972209
110,57.89567960000022,5214.925000000001,5214.05628201837,0.8687179816306525
111,58.44419150000067,5214.668181818182,5213.818687659088,0.8494941590943199
112,58.99117660000047,5214.747727272728,5213.581179490321,1.1665477824071786
113,59.5301787999997,5214.554545454545,5213.343758604229,1.2107868503162535
114,60.08225540000058,5214.168181818181,5213.106426129858,1.061755688323501
115,60.64193890000024,5214.093181818182,5212.869183234544,1.2239985836376945
116,61.20560099999966,5214.693181818182,5212.632031119198,2.06115069898442
117,61.77115369999956,5214.788636363636,5212.394971023428,2.3936653402079173
118,62.33114270000078,5213.379545454545,5212.1580042520345,1.221541202510707
119,62.88561599999956,5213.079545454546,5211.92113218551,1.1584132690359183
120,63.453724999999395,5213.043181818181,5211.684356242963,1.3588255752183613
121,64.00135579999916,5251.525000000001,5211.447677880136,40.07732211986422
122,64.57523869999932,5232.775,5211.211098595741,21.563901404259013
123,65.13044810000063,5229.877272727273,5210.974621155841,18.902651571431306
124,65.68971529999908,5229.1045454545465,5210.738249008416,18.366296446130946
125,66.25384479999956,5228.336363636365,5210.501986199195,17.834377437169678
126,66.82118339999944,5227.645454545455,5210.265837354704,17.37961719075156
127,67.38306080000076,5227.056818181818,5210.029807665441,17.02701051637723
128,67.9629848000004,5226.461363636365,5209.793902871499,16.66746076486561
129,68.53430970000043,5225.829545454546,5209.558129251412,16.271416203134322
130,69.09900860000016,5225.561363636364,5209.322493610782,16.2388700255824
131,69.6659722000004,5225.113636363636,5209.087003269763,16.026633093872988
132,70.25961839999944,5224.781818181818,5208.851666062026,15.930152119792183
133,70.82412309999928,5224.236363636363,5208.61649032805,15.6198733083138
134,71.4262230000004,5223.64090909091,5208.381484912066,15.259424178843801
135,72.00248060000013,5223.26590909091,5208.146659152256,15.11924993865432
136,72.57051920000048,5223.063636363637,5207.91202286934,15.151613494296726
137,73.1339282000008,5222.679545454545,5207.677586362158,15.001959092387551
138,73.7196585999991,5222.177272727273,5207.44336040868,14.733912318592957
139,74.29279569999926,5221.690909090909,5207.2093562612845,14.481552829624889
140,74.86408710000067,5222.102272727273,5206.975585638276,15.126687088996732
141,75.4614533999993,5221.1272727272735,5206.742060715909,14.385212011364274
142,76.03584149999917,5221.006818181819,5206.508794148786,14.49802403303238
143,76.6249188999991,5220.713636363637,5206.2757990464115,14.437837317225785
144,77.22023839999927,5220.375000000001,5206.043088976753,14.331911023247812
145,77.80312129999948,5220.061363636364,5205.810677964348,14.250685672016516
146,78.38701760000004,5219.4681818181825,5205.578580486945,13.889601331237827
147,78.97067160000006,5219.29090909091,5205.346811472939,13.944097617970328
148,79.5552048999998,5219.0931818181825,5205.115386289955,13.977795528227944
149,80.13663610000005,5218.711363636364,5204.884320746563,13.827042889800396
150,80.73916099999953,5218.488636363636,5204.65363109336,13.83500527027627
151,81.33576229999926,5218.227272727273,5204.423334018184,13.80393870908938
152,81.91883469999992,5217.900000000001,5204.193446646377,13.706553353623349
153,82.51821799999924,5217.634090909091,5203.963986539799,13.670104369291948
154,83.10366670000076,5217.504545454545,5203.734971693749,13.769573760796447
155,83.6936114,5217.343181818182,5203.506420535812,13.83676128236948
156,84.2809326000006,5216.990909090909,5203.278351929005,13.712557161903533
157,84.86471879999954,5216.863636363637,5203.050785173901,13.812851189735738
158,85.45916240000042,5216.413636363637,5202.823740004703,13.589896358934311
159,86.05741090000085,5216.322727272727,5202.597236592414,13.72549068031276
160,86.67262739999931,5215.784090909091,5202.37129553779,13.4127953713014
161,87.26915700000065,5215.511363636364,5202.14593787562,13.365425760744074
162,87.8644261999998,5215.4681818181825,5201.921185064845,13.546996753337226
163,88.45752709999942,5215.318181818183,5201.697058987056,13.62112283112674
164,89.05539379999937,5214.804545454546,5201.473581952237,13.330963502309714
165,89.65337,5214.552272727273,5201.2507767011075,13.301496026165296
166,90.2409630000002,5214.2181818181825,5201.028666395949,13.189515422233853
167,91.01015689999986,5213.96590909091,5200.807274619673,13.158634471236837
168,91.60812000000078,5213.7522727272735,5200.58662537228,13.16564735499378
169,92.20929790000082,5213.581818181819,5200.366743069881,13.21507511193795
170,92.81142770000042,5213.41590909091,5200.1476525449225,13.268256545987242
171,93.41338299999916,5213.1272727272735,5199.9293790477495,13.197893679523986
172,94.03958459999922,5193.225,5199.711948248283,-6.486948248282715
173,94.66692010000044,5196.590909090909,5199.495386233801,-2.9044771428916647
174,95.27638830000068,5197.770454545455,5199.2796987831825,-1.5092442377272164
175,95.8872425999998,5197.936363636363,5199.064882582396,-1.1285189460331821
176,96.49624389999916,5198.231818181818,5198.850929592488,-0.619111410669575
177,97.14711390000048,5198.277272727273,5198.637828241499,-0.3605555142257799
178,97.77522270000009,5198.302272727273,5198.425565019251,-0.12329229197803215
179,98.39041960000031,5198.279545454546,5198.21412528679,0.06542016775620141
180,99.00681070000064,5198.384090909091,5198.003494019174,0.38059688991779694
181,99.62412120000045,5198.295454545455,5197.793656193532,0.5017983519228437
182,100.24442579999959,5198.215909090909,5197.584596799031,0.6313122918782028
183,100.8726528999996,5198.336363636364,5197.376300840699,0.9600627956651806
184,101.49609659999987,5198.143181818182,5197.168753343532,0.9744284746493577
185,102.11444449999908,5198.065909090909,5196.961939362887,1.1039697280220935
186,102.7339219000005,5198.006818181818,5196.755843984932,1.2509741968860908
187,103.37342800000081,5198.025000000001,5196.550452330745,1.4745476692551165
188,104.00518139999986,5197.977272727272,5196.345749560965,1.6315231663074883
189,104.63445750000028,5197.706818181819,5196.141720882854,1.5650972989642469
190,105.26645540000027,5197.581818181819,5195.93835155527,1.6434666265486157
191,105.90816369999993,5197.272727272728,5195.73562688656,1.5371003861682766
192,106.5356140999993,5197.3431818181825,5195.533532237043,1.809649581139638
193,107.15895389999969,5197.134090909091,5195.332053015645,1.8020378934461405
194,107.7868942999994,5197.129545454545,5195.131174688517,1.998370766028529
195,108.41274750000048,5196.793181818181,5194.930882778792,1.8622990393896544
196,109.05770520000078,5196.893181818182,5194.731162872799,2.1620189453824423
197,109.70213200000035,5196.777272727273,5194.532000615761,2.2452721115123495
198,110.32868690000032,5196.609090909091,5194.333381721264,2.2757091878265783
199,110.97717960000043,5196.41590909091,5194.1352919739,2.2806171170095695
200,111.61860940000042,5196.327272727273,5193.937717230226,2.389555497047695
201,112.25468799999908,5196.256818181819,5193.740643418917,2.5161747629017555
202,112.88922199999979,5195.963636363636,5193.544056544212,2.4195798194241434
203,113.53051720000076,5195.829545454546,5193.347942689918,2.481602764627496
204,114.18205830000079,5195.768181818182,5193.152288016353,2.615893801828861
205,114.8244283999993,5195.570454545455,5192.957078762312,2.6133757831421462
206,115.47691560000021,5195.4340909090915,5192.762301249314,2.6717896597774597
207,116.13080199999968,5195.325,5192.567941881519,2.757058118480927
208,116.7698130000008,5195.170454545455,5192.3739871475755,2.7964673978794963
209,117.41196099999979,5194.906818181818,5192.180423623319,2.7263945584991234
210,118.05437060000077,5194.9454545454555,5191.987237973016,2.9582165724395963
211,118.70208169999933,5194.770454545455,5191.794416947148,2.9760375983069025
212,119.35204289999999,5194.459090909091,5191.601947389745,2.8571435193462094
213,120.04423409999981,5194.511363636364,5191.4098162389455,3.1015473974184715
214,120.68590629999926,5195.663636363636,5191.218010523242,4.445625840394314
215,121.3291795999994,5194.179545454545,5191.026517369206,3.153028085339429
216,121.97411920000013,5194.322727272728,5190.835324043993,3.4874032287352748
217,122.63914160000058,5193.918181818182,5190.6444179144655,3.2737639037168265
218,123.29468090000046,5210.656818181818,5190.453786457767,20.20303172405147
219,123.97560720000001,5228.375000000001,5190.263417254566,38.111582745435044
220,124.62299109999913,5222.922727272728,5190.073298524405,32.84942874832268
221,125.29920759999914,5220.915909090909,5189.88341969202,31.032489398889084
222,125.95589280000058,5219.722727272728,5189.693771220937,30.028956051790374
223,126.61556820000078,5219.061363636364,5189.504344556018,29.557019080346436
224,127.27262680000058,5218.163636363636,5189.315132091719,28.84850427191759
225,127.93398709999929,5217.243181818182,5189.126127157173,28.117054661009206
226,128.60702599999968,5216.777272727273,5188.937323993785,27.8399487334882
227,129.26056249999965,5216.140909090909,5188.748717732099,27.392191358810123
228,129.9172665999995,5215.725,5188.560304383033,27.164695616967037
229,130.58036549999997,5215.163636363636,5188.372080823724,26.791555539912224
230,131.27693030000046,5214.515909090909,5188.18404479033,26.331864300579582
231,131.93229749999955,5214.1954545454555,5187.996194866233,26.19925967922245
232,132.5932716999996,5214.088636363636,5187.808530467508,26.28010589612859
233,133.25586099999964,5213.6,5187.621051838717,25.97894816128337
234,133.9195748000002,5212.993181818182,5187.4337600554745,25.559421762707643
235,134.58180429999993,5213.177272727273,5187.246657014922,25.930615712351027
236,135.24175339999965,5212.434090909091,5187.059745422457,25.3743454866335
237,135.9134995000004,5212.031818181818,5186.873028803477,25.15878937834168
238,136.57290079999984,5211.981818181818,5186.686511485788,25.29530669602991
239,137.23433359999945,5211.161363636364,5186.500198592788,24.661165043575238
240,137.91246300000057,5210.997727272728,5186.314096047783,24.683631224945202
241,138.57608699999946,5210.861363636364,5186.128210553932,24.73315308243218
242,139.24775469999986,5210.586363636365,5185.942549594957,24.643814041407495
243,139.9132499999996,5210.484090909092,5185.75712143671,24.726969472381825
244,140.57702869999957,5210.202272727273,5185.571935124344,24.630337602929103
245,141.2417903000005,5210.036363636364,5185.387000484949,24.649363151414946
246,141.9140554000005,5209.634090909091,5185.202328124496,24.431762784595776
247,142.58406800000012,5209.01590909091,5185.017929428434,23.9979796624757
248,143.2551956999996,5209.122727272727,5184.833816554816,24.288910717911676
249,143.9246063999999,5208.868181818182,5184.6500024205725,24.218179397609674
250,144.6005857,5208.700000000001,5184.4665007107205,24.23349928928019
251,145.27471949999926,5208.318181818183,5184.283325876122,24.034855942060858
252,145.94356049999988,5208.081818181819,5184.100493133969,23.981325047849168
253,146.61840739999934,5207.772727272728,5183.918018461504,23.854708811223645
254,147.31433579999975,5207.325,5183.735918594325,23.589081405674733
255,147.9950446999992,5207.375,5183.554211022381,23.820788977618577
256,148.6777648999996,5207.063636363637,5183.372913981577,23.690722382059903
257,149.36752709999928,5207.443181818182,5183.192046461093,24.25113535708897
258,150.06014180000057,5206.902272727273,5183.011628199277,23.8906445279963
259,150.7477046999993,5206.734090909091,5182.831679701363,23.90241120772771
260,151.4345840000005,5206.147727272728,5182.652222228079,23.49550504464878
