,Time (s),J (nA/cm2),bkg,J-bkg
0,0.18903189999992165,1025.7056818181818,1025.4281476031163,0.2775342150655433
1,0.6937545000000682,1025.730681818182,1025.4169136991973,0.3137681189846262
2,1.199493000000075,1025.7018181818182,1025.4056798040542,0.2961383777640094
3,1.7028126999998676,1025.6286363636364,1025.3944459363863,0.23419042725004147
4,2.2048344999998335,1025.6152272727272,1025.383212124256,0.23201514847119142
5,2.7095048999999634,1025.5870454545454,1025.371978403132,0.2150670514133708
6,3.211516500000016,1025.575909090909,1025.3607448158195,0.2151642750893643
7,3.716984400000001,1025.6027272727272,1025.349511411925,0.2532158608021291
8,4.220498399999997,1025.535,1025.3382782478589,0.19672175214122944
9,4.722862499999792,1025.499090909091,1025.3270453880389,0.1720455210520413
10,5.227053199999773,1025.5,1025.3158129031035,0.18418709689649404
11,5.732225499999913,1025.4879545454546,1025.304580869132,0.18337367632261703
12,6.236809900000026,1025.454090909091,1025.2933493680284,0.1607415410626345
13,6.73983700000008,1025.425681818182,1025.2821184874956,0.14356333068644744
14,7.240948399999979,1025.434090909091,1025.270888320319,0.16320258877203742
15,7.743766499999765,1025.4036363636365,1025.259658963824,0.1439773998124565
16,8.25870309999982,1025.3752272727274,1025.2484305204966,0.12679675223080267
17,8.760794399999668,1025.3081818181818,1025.2372030973759,0.07097872080589696
18,9.264971399999922,1025.3218181818183,1025.2259768055108,0.0958413763075896
19,9.769922699999832,1025.283181818182,1025.2147517581943,0.0684300599875769
20,10.273133100000003,1025.2813636363637,1025.2035280717512,0.07783556461254193
21,10.777742499999931,1025.2970454545455,1025.192305864669,0.10473958987654441
22,11.28132259999984,1025.244090909091,1025.1810852578967,0.06300565119431667
23,11.794749899999722,1025.2338636363636,1025.1698663756956,0.06399726066797484
24,12.29754679999997,1025.2270454545455,1025.1586493443194,0.0683961102261037
25,12.812678100000085,1025.2020454545454,1025.1474342920453,0.0546111625001231
26,13.313746599999831,1025.1920454545457,1025.136221349313,0.05582410523265935
27,13.81980889999977,1025.1729545454546,1025.1250106482896,0.04794389716494152
28,14.321690599999783,1025.1352272727274,1025.1138023229073,0.02142494982012977
29,14.823506599999753,1025.1211363636364,1025.1025965086144,0.01853985502202704
30,15.3249651000001,1025.125909090909,1025.091393341537,0.03451574937207624
31,15.829825599999822,1025.1120454545455,1025.0801929583874,0.03185249615808061
32,16.345575199999992,1025.099090909091,1025.0689954969696,0.0300954121214545
33,16.850437300000067,1025.0561363636364,1025.0578010960946,-0.0016647324582663714
34,17.357332699999922,1025.0729545454546,1025.046609895526,0.026344649928660147
35,17.862033099999735,1025.0422727272728,1025.0354220298148,0.006850697458048671
36,18.363460399999887,1025.0488636363636,1025.0242376343451,0.02462600201852183
37,18.876420999999937,1025.0193181818183,1025.0130568447184,0.006261337099886077
38,19.37872789999983,1025.0152272727275,1025.0018797973148,0.013347475412729182
39,19.896111999999903,1024.9688636363637,1024.9907066287124,-0.02184299234863829
40,20.407748699999964,1025.004090909091,1024.9795374759115,0.02455343317956249
41,20.908765699999996,1024.9497727272726,1024.9683724075292,-0.018599680256556894
42,21.415425799999866,1024.9379545454544,1024.9572114929588,-0.01925694750434559
43,21.91792009999972,1024.931818181818,1024.946054743364,-0.014236561545885706
44,22.42165699999987,1024.9304545454545,1024.9349021096218,-0.004447564167321616
45,22.928759399999763,1024.9100000000003,1024.9237534980393,-0.013753498039022816
46,23.438848999999664,1024.9256818181818,1024.9126088009998,0.01307301718202325
47,23.944713800000045,1024.9052272727274,1024.9014678678286,0.003759404898801222
48,24.44827639999994,1024.8777272727273,1024.890330548265,-0.012603275537685477
49,24.950441299999966,1024.8577272727275,1024.8791966921667,-0.021469419439199555
50,25.452224099999967,1024.8588636363636,1024.8680661099343,-0.00920247357066728
51,25.95549660000006,1024.864090909091,1024.8569385447554,0.007152364335524908
52,26.45918859999984,1024.82,1024.8458137110076,-0.025813711007685924
53,26.961183099999744,1024.7986363636364,1024.8346913232945,-0.036054959658031294
54,27.461515699999843,1024.7927272727275,1024.8235710154054,-0.030843742677916453
55,27.967531100000087,1024.8068181818182,1024.812452308254,-0.005634126435779763
56,28.46803729999965,1024.793409090909,1024.8013346261937,-0.00792553528458484
57,28.972924299999697,1024.7836363636366,1024.7902173759385,-0.006581012301921874
58,29.47852069999999,1024.7804545454546,1024.77909993939,0.0013546060645239777
59,29.99721789999967,1024.7386363636365,1024.7679816778482,-0.02934531421169595
60,30.534531499999957,1024.7365909090909,1024.7568619526546,-0.020271043563752755
61,31.044615899999833,1024.7497727272728,1024.7457400332817,0.00403269399112105
62,31.556524499999803,1024.7538636363638,1024.7346151257402,0.01924851062358357
63,32.0726053999997,1024.7159090909092,1024.7234864361685,-0.007577345259278445
64,32.58336809999992,1024.723181818182,1024.7123531713132,0.010828646868731084
65,33.09643159999996,1024.6740909090909,1024.701214514199,-0.027123605108045012
66,33.608730399999786,1024.6704545454545,1024.690069648192,-0.01961510273758904
67,34.12438919999977,1024.6727272727273,1024.6789176717448,-0.00619039901744145
68,34.63603199999989,1024.676590909091,1024.6677576219008,0.008833287190100236
69,35.144607899999755,1024.6781818181819,1024.656588516324,0.021593301857819824
70,35.66976799999975,1024.6568181818182,1024.645409372958,0.011408808860096542
71,36.19919350000009,1024.6543181818183,1024.6342192104287,0.02009897138964334
72,36.72167209999998,1024.6154545454544,1024.6230170477227,-0.0075625022682288545
73,37.24249009999994,1024.6243181818181,1024.6118019044625,0.012516277355643979
74,37.76071219999994,1024.6327272727272,1024.6005727765946,0.032154496132534405
75,38.28136739999991,1024.6370454545456,1024.589328660462,0.0477167940837262
76,38.816322899999705,1024.5895454545457,1024.5780685534232,0.011476901122478012
77,39.337277300000096,1024.6095454545455,1024.5667914543462,0.04275400019923836
78,39.863394399999834,1024.5936363636365,1024.5554963624616,0.038140001174951976
79,40.390867399999934,1024.614090909091,1024.5441822783512,0.06990863073974651
80,40.92114679999986,1024.5627272727274,1024.5328482038035,0.02987906892394676
81,41.45662279999988,1024.5747727272728,1024.5214931428177,0.05327958445514014
82,41.985995,1024.5690909090908,1024.5101161003372,0.05897480875364636
83,42.513446699999804,1024.5693181818183,1024.4987160829903,0.07060209882797608
84,43.05842769999981,1024.543181818182,1024.48729209927,0.05588971891188521
85,43.584921699999995,1024.5561363636366,1024.4758431599023,0.08029320373429982
86,44.127923999999894,1024.5436363636363,1024.4643682773803,0.07926808625597914
87,44.65764199999967,1024.5452272727273,1024.4528664667364,0.09236080599089291
88,45.20858159999989,1024.5409090909093,1024.4413367455093,0.09957234540001991
89,45.76936529999966,1024.5147727272727,1024.4297781341577,0.08499459311497048
90,46.31610569999975,1024.5309090909093,1024.4181896562898,0.11271943461952105
91,46.85478199999989,1024.4695454545454,1024.4065703382007,0.06297511634465991
92,47.39457139999968,1024.5145454545454,1024.3949192097507,0.11962624479474471
93,47.93512409999994,1024.5179545454548,1024.3832353027908,0.13471924266400492
94,48.4746725,1024.4865909090909,1024.3715176529547,0.11507325613615649
95,49.020431200000075,1024.4675000000002,1024.3597653001364,0.10773469986384043
96,49.57719309999993,1024.4697727272728,1024.347977287869,0.1217954394037406
97,50.14212719999978,1024.453181818182,1024.3361526630924,0.11702915508953993
98,50.69291559999965,1024.4811363636363,1024.3242904765975,0.15684588703879854
99,51.23745699999972,1024.4736363636366,1024.3123897828766,0.16124658076000742
100,51.78108619999966,1024.4379545454547,1024.30044964138,0.13750490407460347
101,52.327443299999686,1024.4618181818182,1024.2884691166582,0.17334906515998227
102,52.86172140000008,1024.4420454545457,1024.2764472776098,0.1655981769358732
103,53.396073200000046,1024.4627272727273,1024.2643831986154,0.19834407411190114
104,53.934941499999695,1024.4370454545456,1024.2522759592923,0.18476949525324926
105,54.475158400000055,1024.424090909091,1024.2401246455292,0.18396626356184242
106,55.02970479999976,1024.4479545454546,1024.227928349058,0.2200261963967023
107,55.56262939999988,1024.4168181818184,1024.2156861674275,0.2011320143908506
108,56.10489430000007,1024.414318181818,1024.203397205145,0.21092097667315102
109,56.65211629999976,1024.4229545454546,1024.1910605730773,0.2318939723772928
110,57.194532799999706,1024.414090909091,1024.1786753887618,0.23541552032929758
111,57.73879739999984,1024.4213636363636,1024.1662407770684,0.2551228592951702
112,58.2841198000001,1024.413409090909,1024.1537558703121,0.25965322059687423
113,58.8424986,1024.3997727272729,1024.1412198088753,0.2585529183975268
114,59.38784540000006,1024.394090909091,1024.1286317413515,0.26545916773943645
115,59.934218399999736,1024.3761363636365,1024.1159908245097,0.2601455391268246
116,60.5002510999998,1024.4034090909092,1024.1032962235147,0.3001128673945459
117,61.057583499999964,1024.5722727272728,1024.0905471117567,0.4817256155160976
118,61.63193329999967,1024.8561363636363,1024.077742672117,0.7783936915193408
119,62.17982429999984,1024.4147727272727,1024.0648821027098,0.3498906245629314
120,62.72989759999972,1024.3672727272728,1024.0519646262649,0.3153081010079859
121,63.2911863999998,1024.4550000000002,1024.038989476576,0.41601052342412004
122,63.846598000000085,1039.156590909091,1024.025955897408,15.130635011682898
123,64.40121799999996,1031.2863636363638,1024.0128631456812,7.273500490682636
124,64.9577823999998,1030.2686363636365,1023.9997109567877,6.26892540684878
125,65.51247149999972,1030.159090909091,1023.9864992961285,6.172591612962492
126,66.0769866999999,1029.9177272727275,1023.9732283273456,5.944498945381838
127,66.63441839999996,1029.7529545454545,1023.9598984092755,5.793056136178961
128,67.19265829999996,1029.693181818182,1023.946510088736,5.746671729446007
129,67.7669406,1029.5197727272728,1023.9330640957376,5.586708631535203
130,68.33257289999985,1029.3977272727275,1023.919561342017,5.478165930710475
131,68.89357599999994,1029.3756818181819,1023.9060029159779,5.469678902204009
132,69.45147229999976,1029.2229545454545,1023.8923900792586,5.330564466195938
133,70.0185647999997,1029.1468181818184,1023.8787242664641,5.268093915354257
134,70.59374709999976,1029.1079545454545,1023.8650070807668,5.242947464687745
135,71.16743569999971,1029.0027272727273,1023.8512402919305,5.15148698079679
136,71.74186289999987,1028.9704545454545,1023.8374258355154,5.133028709939026
137,72.3148954999997,1029.07,1023.8235658099854,5.246434190014497
138,72.87764579999975,1028.8863636363637,1023.8096624761255,5.076701160238258
139,73.4499178000001,1028.7438636363638,1023.7957182606272,4.948145375736658
140,74.03164369999968,1028.784090909091,1023.7817357507213,5.00235515836971
141,74.60288429999991,1028.6488636363638,1023.7677176901134,4.881145946250399
142,75.17958999999972,1028.6370454545454,1023.7536669806968,4.883378473848552
143,75.75551069999985,1028.5420454545456,1023.7395866787203,4.802458775825244
144,76.3315333999999,1028.5084090909093,1023.7254799948587,4.782929096050566
145,76.90407529999992,1028.4913636363638,1023.7113502916536,4.780013344710142
146,77.4810183999998,1028.480909090909,1023.6972010828964,4.783708008012695
147,78.05613270000003,1028.4970454545455,1023.683036033536,4.814009421009473
148,78.63155199999984,1028.4713636363638,1023.6688589597946,4.802504676569129
149,79.2074303999998,1028.425,1023.6546738301271,4.770326169872874
150,79.78583630000004,1028.3029545454547,1023.6404847648562,4.662469780598485
151,80.36793970000008,1028.3402272727274,1023.6262960351556,4.713931237571728
152,80.95041020000008,1028.270909090909,1023.6121120596392,4.658797031269842
153,81.52979409999988,1028.2163636363637,1023.5979374059884,4.618426230375235
154,82.11291819999995,1028.1325000000002,1023.5837767892093,4.548723210790854
155,82.69574169999989,1028.168409090909,1023.5696350703554,4.598774020553719
156,83.28900739999972,1028.1961363636365,1023.555517254323,4.640619109313434
157,83.87683719999995,1028.1918181818182,1023.541428491435,4.650389690383236
158,84.4613374999999,1028.161818181818,1023.5273740787635,4.634444103054534
159,85.05249849999971,1028.0586363636364,1023.513359460439,4.5452769031974185
160,85.64787949999982,1028.1131818181818,1023.4993902271463,4.613791591035579
161,86.24128199999996,1027.9520454545457,1023.4854721133045,4.466573341241201
162,86.83204769999976,1028.0406818181818,1023.4716109992336,4.569070818948262
163,87.42515959999992,1027.9468181818183,1023.4578129064992,4.489005275319187
164,88.02780269999994,1027.940681818182,1023.4440840011537,4.49659781702826
165,88.62386809999998,1027.950681818182,1023.4304305912045,4.520251226977393
166,89.22391289999996,1027.8243181818182,1023.4168591268536,4.407459054964534
167,89.82223709999973,1027.9229545454548,1023.403376201246,4.519578344208753
168,90.4218264000001,1027.919090909091,1023.3899885469024,4.52910236218861
169,91.01175239999976,1027.918409090909,1023.3767030392655,4.541706051643587
170,91.61067139999976,1027.9550000000002,1023.3635266970014,4.591473302998793
171,92.2137662,1028.0077272727274,1023.3504666823967,4.657260590330679
172,92.81631119999976,1027.8784090909091,1023.3375303029333,4.540878787975885
173,93.43446189999986,1027.8149999999998,1023.3247250133682,4.490274986631675
174,94.03636559999995,1021.3104545454546,1023.312058412054,-2.001603866599339
175,94.64283939999996,1022.3959090909091,1023.2995382393384,-0.9036291484293315
176,95.25975749999998,1022.7554545454544,1023.287165969238,-0.5317114237835767
177,95.88016560000004,1022.9525000000001,1023.2749402468183,-0.3224402468182461
178,96.50466009999992,1023.0784090909092,1023.2628580525404,-0.18444896163123303
179,97.11749059999966,1023.1179545454546,1023.250915357416,-0.13296081196142495
180,97.73329439999998,1023.2229545454545,1023.2391075550111,-0.01615300955654675
181,98.35299600000008,1023.2675,1023.2274296226376,0.04007037736244001
182,98.9685856000001,1023.3209090909093,1023.2158764870381,0.10503260387110913
183,99.5803235999997,1023.3263636363636,1023.2044430762227,0.12192056014089303
184,100.20398470000009,1023.3788636363637,1023.1931243215226,0.18573931484104378
185,100.83783730000005,1023.4297727272726,1023.1819151581252,0.24785756914741341
186,101.45409269999982,1023.4538636363636,1023.1708105270906,0.28305310927305527
187,102.08989079999992,1023.4806818181819,1023.1598053773172,0.32087644086470846
188,102.70359179999969,1023.4568181818182,1023.1488946666543,0.3079235151639068
189,103.32658649999985,1023.5052272727273,1023.1380733630984,0.3671539096288825
190,103.94709539999985,1023.5552272727274,1023.127336444383,0.4278908283444025
191,104.5679725,1023.5443181818182,1023.1166788998519,0.4276392819663215
192,105.19457340000008,1023.5900000000001,1023.1060957323804,0.4839042676197778
193,105.82177599999977,1023.5979545454547,1023.0955819583671,0.5023725870876206
194,106.45098909999979,1023.5909090909092,1023.0851326095134,0.5057764813958556
195,107.0895829000001,1023.6154545454547,1023.0747427334069,0.540711812047789
196,107.7163043999999,1023.6052272727272,1023.0644073936293,0.5408198790979668
197,108.34376870000006,1023.6225000000002,1023.0541216708616,0.568378329138568
198,108.97785449999992,1023.6879545454547,1023.043880662887,0.6440738825676817
199,109.61085809999986,1023.666590909091,1023.0336794854624,0.6329114236286841
200,110.24596889999975,1023.6850000000001,1023.0235132747122,0.6614867252878867
201,110.87752019999971,1023.7172727272729,1023.0133771867752,0.7038955404976832
202,111.50094979999994,1023.6806818181819,1023.0032663987088,0.6774154194731636
203,112.15289319999965,1023.745,1022.9931761098294,0.7518238901706127
204,112.78380889999971,1023.7197727272726,1022.9831015408752,0.736671186397416
205,113.41772319999973,1023.7361363636363,1022.9730379363593,0.7630984272769865
206,114.05617260000008,1023.7388636363637,1022.9629805640907,0.7758830722730181
207,114.6953524999999,1023.769090909091,1022.9529247160087,0.8161661930822675
208,115.33255559999998,1023.7988636363636,1022.9428657085891,0.8559979277745242
209,115.98861739999984,1023.760681818182,1022.9327988841163,0.8278829340656557
210,116.63083400000005,1023.7568181818183,1022.9227196119439,0.8340985698744134
211,117.27608729999974,1023.8154545454547,1022.9126232876051,0.9028312578495843
212,117.91910579999967,1023.7765909090908,1022.9025053330098,0.8740855760810291
213,118.57345119999991,1023.8025,1022.8923611986179,0.9101388013821179
214,119.23239669999975,1023.8131818181819,1022.8821863625302,0.9309954556516686
215,119.88877759999968,1023.8431818181818,1022.871976331629,0.9712054865528899
216,120.53877859999966,1023.8202272727275,1022.8617266422373,0.9585006304902208
217,121.18909170000006,1024.2113636363638,1022.8514328613899,1.3599307749739182
218,121.83475210000006,1023.8361363636363,1022.8410905864317,0.9950457772046093
219,122.47280139999975,1024.3404545454546,1022.8306954577126,1.5097590877419407
220,123.12873579999996,1023.8454545454547,1022.8202431470479,1.0252113984067819
221,123.77704349999976,1023.8397727272728,1022.8097293739953,1.030043353277506
222,124.42374739999968,1043.2204545454547,1022.7991498905326,20.421304654922096
223,125.06403099999989,1035.0063636363636,1022.7885004812101,12.217863155153509
224,125.70904949999976,1033.9377272727274,1022.7777775763564,11.159949696371086
225,126.37015709999969,1033.5529545454547,1022.7669779926624,10.785976552792249
226,127.01420389999976,1033.055909090909,1022.7560988997279,10.299810191180995
227,127.65750469999966,1032.9254545454546,1022.7451378082351,10.180316737219528
228,128.31892579999976,1032.6793181818182,1022.7340925545747,9.94522562724353
229,128.97317889999977,1032.504090909091,1022.7229612970675,9.781129612023506
230,129.61924039999985,1032.3652272727272,1022.7117425085297,9.653484764197515
231,130.27551319999975,1032.2202272727272,1022.7004349710837,9.51979230164352
232,130.91975139999977,1032.0847727272728,1022.6890377721215,9.395734955151283
233,131.58034580000003,1032.1050000000002,1022.6775503000777,9.42744969992259
234,132.24486149999984,1031.8620454545455,1022.6659722405061,9.196073214039416
235,132.89569359999996,1031.7856818181817,1022.6543035770833,9.131378241098446
236,133.54632450000008,1031.6484090909091,1022.64254458429,9.005864506619105
237,134.2032549999999,1031.5436363636363,1022.6306958253671,8.912940538269254
238,134.85395739999967,1031.4706818181817,1022.6187581483453,8.851923669836424
239,135.50337249999984,1031.4593181818182,1022.6067326831072,8.852585498710937
240,136.15099310000005,1031.3504545454546,1022.5946208394583,8.755833705996224
241,136.7991253,1031.3956818181819,1022.5824243071469,8.813257511034976
242,137.4563506999998,1031.3654545454544,1022.5701450528044,8.795309492650063
243,138.11459909999985,1031.256590909091,1022.5577853217615,8.698805587329616
244,138.7711420999999,1031.2436363636364,1022.545347637482,8.698288726154374
245,139.4323062999997,1031.0084090909093,1022.5328347985097,8.475574292399529
246,140.09205870000005,1031.1031818181818,1022.5202498784522,8.582931939729633
247,140.75928619999968,1030.9977272727274,1022.5075962189388,8.49013105378856
248,141.42407259999982,1030.9702272727272,1022.494877433015,8.475349839712294
249,142.07935659999976,1030.8229545454546,1022.4820974022074,8.340857143247263
250,142.74553779999997,1030.9554545454546,1022.4692602760571,8.486194269397515
251,143.41124899999977,1030.8606818181818,1022.4563704678662,8.404311350315538
252,144.07294999999976,1030.8886363636366,1022.4434326592936,8.44520370434293
253,144.73796249999987,1030.7995454545455,1022.4304517977663,8.369093656779228
