,Time (s),J (nA/cm2),bkg,J-bkg
0,0.3086887999997998,4946.338636363636,4945.146381994309,1.1922543693272019
1,0.8229283999999097,4946.093181818182,4944.968099841252,1.125081976929323
2,1.3378336999994644,4945.934090909091,4944.789817725898,1.144273183193036
3,1.8390737999998237,4945.643181818183,4944.611535721526,1.0316460966569139
4,2.3541783999999097,4945.390909090909,4944.4332539376,0.9576551533091333
5,2.8546337999996467,4945.165909090909,4944.254972516205,0.9109365747035554
6,3.3554780999993454,4944.920454545455,4944.0766916297125,0.8437629157424453
7,3.869101799999953,4944.631818181818,4943.898411479297,0.7334067025212789
8,4.38287020000007,4944.429545454545,4943.720132292816,0.7094131617295716
9,4.889516199999889,4944.309090909091,4943.54185432132,0.7672365877706397
10,5.404238999999507,4944.034090909091,4943.363577838292,0.6705130707987337
11,5.908540499999617,4943.736363636363,4943.1853031414785,0.5510604948849505
12,6.414074399999663,4943.484090909092,4943.00703054983,0.47706035926148616
13,6.918813599999339,4943.322727272727,4942.828760399723,0.4939668730039557
14,7.433186599999317,4943.186363636364,4942.650493042619,0.5358705937451305
15,7.948134499999469,4942.954545454546,4942.472228845598,0.4823166089481674
16,8.463456899999983,4942.756818181819,4942.293968192686,0.4628499891323372
17,8.978906599999391,4942.472727272727,4942.115711483162,0.3570157895646844
18,9.481878999999935,4942.297727272728,4941.9374591309415,0.3602681417860367
19,9.982806099999841,4942.268181818182,4941.75921156123,0.508970256952125
20,10.496527999999671,4941.881818181819,4941.580969210625,0.30084897119377274
21,11.010397499999272,4941.688636363637,4941.402732531818,0.2859038318183593
22,11.525315899999441,4941.547727272728,4941.224501987015,0.3232252857123967
23,12.028204799999912,4941.275000000001,4941.046278047461,0.2287219525396722
24,12.54340400000001,4940.977272727273,4940.868061194625,0.10921153264825989
25,13.059528999999202,4940.997727272727,4940.689851917203,0.3078753555246294
26,13.662853599999842,4940.668181818182,4940.511650707347,0.15653111083520344
27,14.168465599999763,4940.343181818182,4940.333458066948,0.009723751233650546
28,14.683370599999762,4940.218181818182,4940.15527450284,0.06290731534136285
29,15.185017799999521,4939.952272727272,4939.977100522169,-0.024827794896737032
30,15.699165699999867,4939.838636363636,4939.798936634072,0.03969972956474521
31,16.214663599999767,4939.665909090909,4939.620783269957,0.045125820951398055
32,16.730310399999325,4939.329545454545,4939.4426408624895,-0.11309540794445638
33,17.246290099999896,4939.290909090909,4939.264509845758,0.026399245150969364
34,17.760579899999357,4939.070454545455,4939.086390299791,-0.01593575433616934
35,18.262590099999215,4938.890909090909,4938.9082823054505,-0.017373214541294146
36,18.775252699999328,4938.804545454545,4938.730185893713,0.0743595608328178
37,19.27820099999917,4938.690909090909,4938.55210104116,0.13880804974905914
38,19.7798731999992,4938.418181818182,4938.374027726729,0.04415409145349258
39,20.288681299999553,4938.197727272727,4938.19596593374,0.0017613389873076812
40,20.79430339999999,4938.052272727273,4938.017915646912,0.03435708036067808
41,21.30894949999947,4937.788636363636,4937.839876851019,-0.051240487382528954
42,21.821944799999983,4937.684090909091,4937.661849531922,0.022241377168938925
43,22.33792159999939,4938.522727272727,4937.4838335150625,1.038893757664482
44,22.841919599999528,4937.220454545455,4937.305828626588,-0.08537408113261336
45,23.346386299999722,4937.097727272727,4937.127834725496,-0.03010745276878879
46,23.84978819999924,4936.877272727273,4936.949851403506,-0.07257867623320635
47,24.353004699999474,4936.922727272728,4936.771878158083,0.15084911464418838
48,24.85461589999977,4936.650000000001,4936.593914259473,0.05608574052712356
49,25.3569465999999,4936.420454545455,4936.415958982691,0.004495562763622729
50,25.85846390000006,4936.1954545454555,4936.238011604526,-0.04255705907053198
51,26.37068739999995,4936.145454545454,4936.060071401907,0.0853831435470056
52,26.87878079999973,4935.884090909091,4935.882137518537,0.0019533905542630237
53,27.410315199999786,4935.677272727273,4935.704209100817,-0.026936373544231174
54,27.915791599999466,4935.586363636364,4935.52628529521,0.060078341153712245
55,28.425919899999833,4935.393181818182,4935.348365163847,0.044816654334681516
56,28.936842699999943,4935.209090909091,4935.1704477707635,0.0386431383276431
57,29.45154829999956,4935.088636363636,4934.992532181411,0.09610418222564476
58,29.968106099999197,4934.861363636363,4934.8146174624635,0.046746173899919086
59,30.49397619999945,4934.756818181819,4934.636702683635,0.12011549818362255
60,31.022394299999178,4934.5818181818195,4934.458786916119,0.12303126570077438
61,31.53827529999944,4934.4113636363645,4934.280869234905,0.1304944014591456
62,32.06761430000006,4934.293181818182,4934.102948718875,0.1902330993070791
63,32.581069099999695,4934.018181818182,4933.925024451036,0.09315736714597733
64,33.102088799999365,4933.829545454546,4933.747095520412,0.08244993413427437
65,33.61829549999948,4933.488636363636,4933.56916101897,-0.08052465533364739
66,34.13658359999954,4933.463636363636,4933.391220041286,0.07241632235036377
67,34.66538149999997,4933.238636363637,4933.213271429845,0.025364933791934163
68,35.19135589999951,4933.168181818182,4933.035314029418,0.1328677887640879
69,35.717780899999525,4932.947727272727,4932.857346685581,0.09038058714577346
70,36.2440205999992,4932.781818181818,4932.67936824811,0.10244993370815791
71,36.771916199999396,4932.531818181818,4932.501377569639,0.03044061217951821
72,37.29699849999997,4932.268181818182,4932.323373506042,-0.05519168786031514
73,37.84710249999989,4932.331818181819,4932.145354914157,0.18646326766156562
74,38.38420069999938,4931.986363636364,4931.967320478039,0.019043158325075638
75,38.93039369999951,4931.847727272728,4931.789268887638,0.05845838508957968
76,39.46383389999937,4931.811363636364,4931.611198833507,0.20016480285721627
77,40.0159979,4931.588636363636,4931.4331090080495,0.15552735558685526
78,40.567460799999935,4931.406818181819,4931.254998109997,0.15182007182193047
79,41.11169840000002,4931.363636363637,4931.076864842999,0.28677152063755784
80,41.657153899999685,4931.04090909091,4930.898707915505,0.14220117540480715
81,42.206890999999814,4931.977272727273,4930.720526045034,1.2567466822392817
82,42.74808049999956,4930.634090909091,4930.542317953602,0.0917729554894322
83,43.29809169999953,4930.74090909091,4930.364082402966,0.3768266879433213
84,43.84690520000004,4930.4113636363645,4930.185818157783,0.2255454785818074
85,44.3892866999995,4930.418181818182,4930.007523994629,0.4106578235532652
86,44.93269699999928,4930.493181818182,4929.82919869721,0.6639831209722615
87,45.49409959999957,4929.972727272728,4929.650841062218,0.3218862105095468
88,46.03279139999995,4929.827272727273,4929.472449907347,0.3548228199260848
89,46.58262099999956,4929.709090909092,4929.2940240604685,0.41506684862361
90,47.13597969999955,4929.297727272728,4929.115562360674,0.18216491205384955
91,47.6910070999993,4929.381818181819,4928.93706366018,0.4447545216389699
92,48.24113579999994,4929.168181818182,4928.758526816965,0.4096550012172884
93,48.788551099999495,4929.018181818183,4928.579950703066,0.43823111511665047
94,49.337872699999934,4928.965909090909,4928.401334203474,0.564574887434901
95,49.88666599999942,4928.590909090909,4928.222676217046,0.368232873863235
96,50.43605630000002,4928.411363636364,4928.0439756604865,0.36738797587713634
97,50.981252999999924,4928.234090909091,4927.865231462144,0.36885944694677164
98,51.53250129999924,4928.204545454546,4927.686442561986,0.5181028925599094
99,52.10019849999935,4927.881818181819,4927.5076079116425,0.3742102701762633
100,52.64279769999939,4927.859090909091,4927.328726479129,0.5303644299619918
101,53.18916459999946,4927.734090909092,4927.1497972442885,0.5842936648032264
102,53.734898699999576,4927.613636363636,4926.9708192037415,0.6428171598945482
103,54.280386599999474,4927.434090909091,4926.79179137258,0.6422995365110182
104,54.83150359999945,4927.206818181819,4926.612712786227,0.5941053955912139
105,55.39142730000003,4926.929545454546,4926.433582500415,0.4959629541317554
106,55.947781799999575,4926.863636363636,4926.254399589658,0.6092367739784095
107,56.51625530000001,4926.925,4926.075163144155,0.8498368558448419
108,57.07353049999983,4926.679545454545,4925.895872273376,0.7836731811694335
109,57.627104999999574,4926.4340909090915,4925.7165261136615,0.7175647954300075
110,58.19874079999954,4926.375000000001,4925.537123826136,0.83787617386497
111,58.756191899999976,4926.156818181818,4925.357664594617,0.7991535872015447
112,59.31060709999929,4925.925,4925.178147629413,0.7468523705874759
113,59.88068049999947,4925.759090909091,4924.998572166103,0.7605187429880971
114,60.45530129999952,4925.795454545455,4924.818937463886,0.9765170815689999
115,61.01335819999986,4926.227272727273,4924.639242806009,1.5880299212640239
116,61.57247709999956,4925.531818181818,4924.4594875066,1.072330675217927
117,62.131134599999314,4925.904545454547,4924.279670930006,1.624874524540246
118,62.70209389999944,4925.027272727273,4924.099792474482,0.9274802527916108
119,63.27154689999952,4924.975,4923.919851589664,1.0551484103361872
120,63.83405270000004,4932.320454545455,4923.73984775452,8.580606790934326
121,64.39243599999918,4941.918181818182,4923.559780481382,18.358401336799943
122,64.95754839999972,4935.722727272728,4923.379649553925,12.343077718802306
123,65.51814560000004,4934.390909090909,4923.1994553363675,11.191453754541726
124,66.08823309999934,4933.7522727272735,4923.019198583251,10.733074144022794
125,66.66128279999975,4933.297727272728,4922.838880403019,10.458846869708395
126,67.2214052999998,4933.304545454545,4922.6585022435265,10.646043211018878
127,67.80951339999956,4932.595454545454,4922.47806588336,10.117388662094527
128,68.37630469999932,4932.604545454546,4922.297573437766,10.306972016779582
129,68.9454554999993,4932.052272727273,4922.117027341929,9.935245385343478
130,69.51856189999944,4931.631818181819,4921.936430356969,9.695387824849604
131,70.09165009999924,4931.397727272728,4921.755785558184,9.641941714544373
132,70.66264899999987,4930.9227272727285,4921.575096327467,9.347630945261699
133,71.24277679999976,4931.231818181818,4921.394366351618,9.837451830199825
134,71.8325347,4930.520454545454,4921.2135996130355,9.3068549324189
135,72.41943919999994,4930.370454545456,4921.032800405202,9.337654140254017
136,73.00851639999928,4929.859090909092,4920.851973315909,9.007117593182556
137,73.59942429999955,4929.763636363637,4920.671123228234,9.092513135402442
138,74.17877669999962,4929.486363636363,4920.49025531008,8.99610832628332
139,74.75677929999983,4929.288636363636,4920.309375016884,8.979261346752537
140,75.33836339999924,4928.915909090909,4920.128488088562,8.787421002346491
141,75.91666839999924,4928.793181818182,4919.947600548982,8.84558126920001
142,76.51648709999972,4928.627272727273,4919.76671869989,8.860554027382932
143,77.11274419999972,4928.168181818182,4919.585849122752,8.582332695430523
144,77.69949259999976,4928.163636363636,4919.404998679234,8.758637684401947
145,78.29242629999952,4927.720454545454,4919.224174502394,8.496280043060324
146,78.87710739999966,4927.690909090909,4919.043384002262,8.647525088646944
147,79.4611062999993,4927.509090909091,4918.862634857547,8.646456051544192
148,80.05809749999936,4927.288636363636,4918.681935020414,8.606701343222085
149,80.6461417999999,4926.770454545454,4918.501292716454,8.26916182900004
150,81.23416409999936,4926.845454545454,4918.320716443429,8.524738102025367
151,81.82492339999952,4926.6,4918.140214960592,8.459785039408416
152,82.42421149999971,4926.1,4917.959797296778,8.140202703222712
153,83.01895129999956,4925.927272727273,4917.779472748335,8.147799978937655
154,83.60811599999944,4925.834090909091,4917.599250869034,8.234840040056952
155,84.2181114999994,4925.609090909092,4917.419141470298,8.18994943879352
156,84.81306479999968,4925.511363636363,4917.239154623961,8.272209012401618
157,85.42842739999924,4925.372727272727,4917.059300660844,8.313426611883187
158,86.03128919999926,4925.213636363637,4916.879590173359,8.334046190278059
159,86.66628309999942,4924.75,4916.7000340168115,8.049965983188486
160,87.27049569999964,4924.7295454545465,4916.520643310052,8.20890214449446
161,87.87440089999927,4924.570454545455,4916.34142942649,8.229025118964273
162,88.4770783999993,4924.484090909092,4916.162403999125,8.321686909966957
163,89.08427099999972,4924.122727272727,4915.9835789211775,8.13914835154992
164,89.69528300000002,4924.018181818182,4915.804966349027,8.21321546915442
165,90.33862939999926,4923.663636363637,4915.626578696438,8.037057667199406
166,90.94621089999964,4923.645454545455,4915.4484286368925,8.197025908562864
167,91.5441607999992,4923.479545454546,4915.270529098034,8.209016356511711
168,92.1466031,4923.243181818182,4915.092893266712,8.150288551470112
169,92.7553582999999,4923.272727272727,4914.91553458937,8.357192683357425
170,93.35513609999998,4922.997727272727,4914.738466770181,8.259260502546567
171,93.96280209999986,4922.770454545454,4914.561703777598,8.208750767856145
172,94.57700459999978,4911.806818181818,4914.385259841252,-2.5784416594342474
173,95.1781102999994,4912.5931818181825,4914.209149450359,-1.615967632176762
174,95.78196369999932,4912.784090909091,4914.033379021922,-1.2492881128309818
175,96.38985569999932,4913.034090909091,4913.85794991391,-0.823859004818587
176,96.99805819999985,4913.143181818182,4913.682859573199,-0.5396777550167826
177,97.60612989999936,4913.138636363637,4913.50810286745,-0.36946650381378277
178,98.21279869999944,4913.181818181819,4913.333672974781,-0.15185479296178528
179,98.82528469999943,4913.204545454546,4913.159561916635,0.044983537911321037
180,99.46704399999999,4913.352272727273,4912.985761239052,0.3665114882205671
181,100.08201409999947,4913.24090909091,4912.812262489494,0.42864660141549393
182,100.6940726999992,4913.1,4912.639057227013,0.4609427729874369
183,101.30493119999937,4913.020454545454,4912.466137024214,0.5543175212405913
184,101.93294209999931,4913.04090909091,4912.293493468279,0.7474156226307969
185,102.54795159999958,4912.879545454545,4912.121118163919,0.7584272906260594
186,103.1590570999997,4912.604545454546,4911.94900273948,0.6555427150651667
187,103.78545069999927,4912.675,4911.777138847291,0.8978611527090834
188,104.40535319999981,4912.679545454546,4911.605518160409,1.0740272941375224
189,105.03554009999971,4912.484090909092,4911.434132380287,1.0499585288043818
190,105.65934669999933,4912.306818181819,4911.26297324234,1.0438449394787312
191,106.28166979999969,4912.270454545454,4911.0920325151865,1.1784220302679387
192,106.90951949999999,4912.325000000001,4910.921302000452,1.4036979995489673
193,107.53239129999929,4912.022727272727,4910.750773537027,1.2719537356997535
194,108.15937539999959,4911.902272727273,4910.580439008192,1.3218337190810416
195,108.79356049999933,4911.893181818182,4910.410290337449,1.4828914807330875
196,109.41687869999987,4911.922727272728,4910.240319490095,1.6824077826322537
197,110.05631539999922,4911.670454545455,4910.070518478327,1.5999360671276008
198,110.68964929999947,4911.543181818182,4909.9008793675375,1.64230245064482
199,111.31411299999945,4911.3,4909.731394273715,1.5686057262855684
200,111.93467710000004,4911.231818181818,4909.562055364778,1.6697628170404641
201,112.56663119999939,4911.3,4909.392854858252,1.907145141748515
202,113.1952726999998,4911.004545454546,4909.223785024466,1.780760430079681
203,113.85310929999923,4910.963636363637,4909.054838194057,1.9087981695802227
204,114.4849365,4910.8,4908.886006753974,1.913993246026621
205,115.12977909999972,4910.602272727273,4908.7172831515245,1.8849895757484774
206,115.78516299999956,4910.690909090909,4908.5486598945445,2.142249196364901
207,116.43204160000005,4910.552272727273,4908.380129550479,2.1721431767937247
208,117.06568729999981,4910.329545454546,4908.211684754517,2.1178607000292686
209,117.71526879999965,4910.188636363637,4908.043318210532,2.1453181531051086
210,118.35271349999948,4910.068181818183,4907.8750226893735,2.193159128809384
211,118.98933219999981,4910.084090909091,4907.706791029727,2.377299879363818
212,119.63035209999998,4909.7,4907.538616139635,2.161383860364367
213,120.26703499999985,4909.815909090909,4907.370491002314,2.4454180885950336
214,120.91415899999993,4909.652272727273,4907.202408669331,2.44986405794225
215,121.56448980000005,4910.313636363637,4907.034362269582,3.2792740940549265
216,122.20429019999938,4909.96590909091,4906.866345009432,3.0995640814780927
217,122.84981869999956,4909.297727272728,4906.698350198946,2.5993770737813975
218,123.50546349999968,4909.1954545454555,4906.530371246208,2.6650832992472715
219,124.16973739999958,4940.959090909091,4906.362401641499,34.59668926759241
220,124.81561069999952,4931.225,4906.194434959377,25.030565040623515
221,125.47426339999947,4927.8431818181825,4906.026465868445,21.816715949737954
222,126.14019559999997,4926.152272727272,4905.858489828842,20.293782898430436
223,126.80528499999946,4925.49090909091,4905.690502990613,19.80040610029664
224,127.45342600000004,4924.868181818182,4905.522502145549,19.345679672633196
225,128.11300269999992,4924.102272727273,4905.3544847115845,18.747788015688457
226,128.77702859999954,4923.863636363637,4905.186448718418,18.67718764521851
227,129.42919189999975,4923.522727272728,4905.018392788606,18.5043344841215
228,130.0984054999999,4922.863636363637,4904.85031613533,18.01332022830684
229,130.75564739999936,4922.602272727273,4904.682218556931,17.920054170342155
230,131.40908059999947,4922.227272727273,4904.514100421378,17.71317230589466
231,132.06748949999928,4921.927272727273,4904.345962663328,17.58131006394524
232,132.7234423,4921.663636363637,4904.1778067775695,17.485829586067666
233,133.3855251999994,4921.220454545455,4904.009634814866,17.21081973058881
234,134.03849929999978,4920.952272727273,4903.8414493789305,17.11082334834282
235,134.68281799999932,4920.6954545454555,4903.673253617728,17.02220092772768
236,135.3376349,4920.586363636364,4903.505051220319,17.081312416044966
237,135.99645449999934,4920.156818181818,4903.336846414049,16.819971767768948
238,136.65476649999982,4919.854545454546,4903.168643966428,16.68590148811745
239,137.32103059999918,4919.7,4903.000449176852,16.699550823147547
240,137.9893634,4919.156818181818,4902.832267872372,16.32455030944675
241,138.65298239999993,4918.893181818182,4902.66410640813,16.229075410052246
242,139.31493189999946,4918.804545454546,4902.495971655495,16.308573799051373
243,139.97641469999962,4918.559090909091,4902.327870999047,16.231219910043365
244,140.64170379999996,4918.2,4902.159812339092,16.040187660907577
245,141.30312779999986,4918.070454545455,4901.991804089208,16.078650456246578
246,141.9667118999996,4917.886363636364,4901.8238551702125,16.062508466151485
247,142.65430199999992,4917.525,4901.65597501137,15.869024988629462
248,143.35309359999974,4917.509090909091,4901.48817354989,16.02091735920112
249,144.02878239999973,4917.095454545454,4901.320461224802,15.774993320652356
250,144.7138077999998,4916.902272727273,4901.15284898176,15.749423745513013
251,145.39088399999946,4916.8204545454555,4900.985348265268,15.835106280187574
252,146.07932970000002,4916.75,4900.817971017871,15.93202898212894
253,146.74708629999986,4916.531818181818,4900.650729682865,15.881088498953432
254,147.41729579999992,4916.300000000001,4900.48363720736,15.816362792641485
255,148.0938742999997,4915.956818181818,4900.316707040668,15.640111141149646
256,148.77233699999942,4915.847727272727,4900.149953132262,15.69777414046439
257,149.44374699999935,4915.795454545455,4899.983389926198,15.812064619257399
258,150.12189880000005,4915.256818181818,4899.817032362935,15.439785818883138
259,150.7932710999994,4915.431818181819,4899.65089588296,15.780922298858968
260,151.4614625999993,4914.938636363637,4899.484996415006,15.453639948630553
261,152.1518785999997,4914.54090909091,4899.319350386842,15.22155870406732
