,Time (s),J (nA/cm2),bkg,J-bkg
0,0.4376307000002271,2131.497272727273,2130.981998248615,0.5152744786578296
1,0.9524250000013161,2131.411818181818,2130.915745004092,0.49607317772597526
2,1.4676269999999967,2131.3318181818186,2130.8494917758635,0.4823264059550638
3,1.9754694000002928,2131.2284090909093,2130.78323859591,0.4451704949992745
4,2.4890993000008166,2131.133181818182,2130.716985511466,0.41619630671584673
5,3.0027696000015567,2131.0829545454544,2130.650732583841,0.4322219616133225
6,3.515810300001249,2131.0120454545454,2130.584479887507,0.42756556703852766
7,4.031421000001501,2130.889772727273,2130.5182275106026,0.3715452166702562
8,4.532908400000451,2130.8100000000004,2130.451975554789,0.35802444521141297
9,5.047813500001212,2130.727954545455,2130.3857241334754,0.3422304119794717
10,5.548122300000614,2130.6645454545455,2130.3194733713926,0.3450720831528997
11,6.062869400000643,2130.5602272727274,2130.253223404094,0.30700386863327367
12,6.566872700001113,2130.4868181818183,2130.1869743780467,0.2998438037716369
13,7.081315200000972,2130.398181818182,2130.1207264494246,0.2774553687572734
14,7.585971400001647,2130.305909090909,2130.054479783883,0.25142930702622834
15,8.088317300000199,2130.199772727273,2129.9882345558512,0.21153817142158005
16,8.6029767,2130.1484090909094,2129.92199094771,0.2264181431992256
17,9.106085300001723,2130.076136363636,2129.8557491485285,0.22038721510762116
18,9.644578900000852,2129.975909090909,2129.789509354536,0.186399736373005
19,10.150076300000372,2129.9113636363636,2129.7232717689317,0.18809186743192186
20,10.664846900001066,2129.8284090909096,2129.657036600809,0.1713724901005662
21,11.16630510000141,2129.7227272727273,2129.5908040652084,0.13192320751886655
22,11.680933600000571,2129.631590909091,2129.5245743825903,0.10701652650050164
23,12.181120700000974,2129.588863636364,2129.4583477775855,0.1305158587783808
24,12.683660400000008,2129.490681818182,2129.39212447821,0.09855733997210336
25,13.19750710000153,2129.3943181818186,2129.325904716606,0.06841346521241576
26,13.713136700000177,2129.365227272727,2129.2596887280333,0.1055385446938999
27,14.228542800001378,2129.2629545454547,2129.193476749914,0.06947779554047884
28,14.729859200000647,2129.203863636364,2129.127269023007,0.07659461335697415
29,15.243027000000438,2129.105681818182,2129.06106579027,0.04461602791207042
30,15.744742200000474,2129.0299999999997,2128.9948672970822,0.03513270291750814
31,16.257630200001593,2128.948409090909,2128.928673790234,0.01973530067516549
32,16.75883850000173,2128.8681818181817,2128.8624855176263,0.005696300555428024
33,17.262233900000872,2128.8365909090912,2128.7963027277856,0.040288181305641046
34,17.77455800000098,2128.744090909091,2128.7301256694177,0.013965239673325414
35,18.276838100000532,2128.662727272728,2128.6639545925027,-0.0012273197748982057
36,18.779574800000773,2128.616590909091,2128.597789747462,0.01880116162919876
37,19.285680000000873,2128.5206818181823,2128.5316313808735,-0.010949562691166648
38,19.79190350000136,2128.405,2128.4654797399107,-0.06047973991053368
39,20.306388200000583,2128.3570454545456,2128.3993350374662,-0.0422895829206027
40,20.821318900001643,2128.295681818182,2128.3331972970927,-0.03751547891079099
41,21.322612500000105,2128.219772727273,2128.2670664099487,-0.04729368267589962
42,21.857534900000246,2128.1529545454546,2128.2009421497455,-0.04798760429093818
43,22.36808100000053,2128.1511363636364,2128.134824142133,0.01631222150354006
44,22.883544000000256,2128.043409090909,2128.068711862529,-0.0253027716203178
45,23.395281400000393,2127.988863636364,2128.0026047868682,-0.013741150504301913
46,23.913043400001698,2127.928409090909,2127.93650231187,-0.008093220960745384
47,24.438640100001066,2127.827272727273,2127.8704037912344,-0.04313106396148214
48,24.958130599999997,2127.743409090909,2127.8043085533254,-0.06089946241627331
49,25.46626080000169,2127.690909090909,2127.738215791479,-0.047306700570061366
50,25.976359700000103,2127.6381818181817,2127.6721245083763,-0.03394269019463536
51,26.498830100001214,2127.6000000000004,2127.606033558598,-0.006033558597664523
52,27.01012530000117,2127.5227272727275,2127.5399416904615,-0.017214417734066956
53,27.54068340000049,2127.4170454545456,2127.473847633395,-0.056802178849466145
54,28.08229520000168,2127.3868181818184,2127.407750062935,-0.020931881116666773
55,28.61550140000145,2127.324318181818,2127.3416474767882,-0.01732929497029545
56,29.151293400000213,2127.211818181818,2127.275538307131,-0.06372012531255677
57,29.679095500001495,2127.2311363636363,2127.209420931888,0.02171543174836188
58,30.210610400001322,2127.1061363636363,2127.1432935294984,-0.037157165862026886
59,30.74460590000126,2127.057727272728,2127.077154279088,-0.01942700636027439
60,31.266137500000696,2126.959090909091,2127.011001243456,-0.05191033436494763
61,31.783792000000176,2126.924772727273,2126.9448324245836,-0.02005969731044388
62,32.3093553000017,2126.874090909091,2126.8786456619396,-0.004554752848434873
63,32.84161050000148,2126.8013636363635,2126.812438732192,-0.011075095828346093
64,33.35919070000091,2126.767045454546,2126.74620939775,0.02083605679581524
65,33.87439240000094,2126.6784090909096,2126.6799553863525,-0.0015462954429494857
66,34.39096800000152,2126.623181818182,2126.6136744263968,0.009507391785064101
67,34.910553300000174,2126.5834090909093,2126.5473642414395,0.036044849469817564
68,35.42265230000157,2126.4659090909095,2126.4810225553374,-0.015113464427940926
69,35.94133630000033,2126.412954545455,2126.4146470930873,-0.0016925476325013733
70,36.460622200000216,2126.3695454545455,2126.3482355323727,0.021309922172804363
71,36.98406780000005,2126.2788636363634,2126.281785545577,-0.002921909213455365
72,37.509802300000956,2126.2647727272724,2126.215294805757,0.049477921515517664
73,38.03858340000079,2126.1768181818184,2126.148760976825,0.028057204993274354
74,38.56568010000046,2126.0763636363636,2126.0821817242518,-0.005818087888201262
75,39.09321470000032,2126.0775,2126.0155547144,0.06194528559990431
76,39.61780510000062,2125.954772727273,2125.9488775954146,0.005895131858324021
77,40.14784430000145,2125.932954545455,2125.8821480174,0.050806528054636146
78,40.676454000000376,2125.8788636363633,2125.8153636306474,0.06350000571592318
79,41.203326100001505,2125.8477272727273,2125.7485220870535,0.09920518567378167
80,41.73262920000161,2125.77,2125.681621040523,0.08837895947681318
81,42.26581660000011,2125.6568181818184,2125.614658148099,0.04216003371948318
82,42.79615300000114,2125.644090909091,2125.5476310696176,0.09645983947348213
83,43.33250640000006,2125.5804545454544,2125.480537466248,0.09991707920653425
84,43.86823610000101,2125.539090909091,2125.4133750022083,0.12571590688276046
85,44.40643640000053,2125.514772727273,2125.3461413448777,0.16863138239523323
86,44.947663800001465,2125.400909090909,2125.278834165608,0.12207492530114905
87,45.48322189999999,2125.352272727273,2125.211451141085,0.14082158618793983
88,46.01761250000163,2125.322954545454,2125.143989951855,0.17896459359917571
89,46.54908539999997,2125.259545454546,2125.076448282916,0.18309717162992456
90,47.12625140000091,2125.2122727272726,2125.008823824925,0.20344890234764534
91,47.67854090000037,2125.116818181818,2124.941114274328,0.17570390749006037
92,48.222303000000466,2125.1375000000003,2124.873317334006,0.2641826659942126
93,48.765328900000895,2125.035909090909,2124.805430712398,0.23047837851117947
94,49.31144140000106,2124.9745454545455,2124.7374521262973,0.23709332824819285
95,49.85986060000141,2124.9288636363635,2124.669379299788,0.25948433657549685
96,50.418049700001575,2124.9120454545455,2124.601209964451,0.3108354900946324
97,50.96758350000164,2124.8625,2124.5329418600722,0.3295581399279399
98,51.5291769000014,2124.7575,2124.4645727362713,0.29292726372887046
99,52.07677740000145,2124.7447727272724,2124.3961003530835,0.3486723741889364
100,52.64934690000155,2124.6852272727274,2124.32752247981,0.35770479291750235
101,53.191975400000956,2124.6375,2124.2588368967763,0.3786631032235164
102,53.72943360000136,2124.5420454545456,2124.1900413956196,0.3520040589260134
103,54.269332300000315,2124.5436363636363,2124.1211337799523,0.4225025836840359
104,54.81618560000061,2124.486363636364,2124.0521118645174,0.4342517718464478
105,55.36613470000157,2124.4188636363638,2123.982973477418,0.4358901589457673
106,55.908723000000464,2124.3070454545455,2123.91371646049,0.3933289940555369
107,56.45316520000051,2124.336818181818,2123.844338669354,0.4924795124643424
108,57.00299500000074,2124.2770454545457,2123.7748379720683,0.5022074824773881
109,57.55528090000007,2124.184090909091,2123.7052122522664,0.47887865682469055
110,58.126688000000286,2124.106818181818,2123.635459409463,0.47135877235541557
111,58.68480170000112,2124.1118181818188,2123.565577358316,0.5462408235025578
112,59.234992200001216,2124.080681818182,2123.4955640283906,0.5851177897911839
113,59.78528750000078,2123.9970454545455,2123.425417366523,0.5716280880224076
114,60.361626400001114,2124.923181818182,2123.355135338054,1.5680464801280323
115,60.92678710000108,2123.9893181818184,2123.2847159264,0.7046022554181945
116,61.481132400000206,2124.909772727273,2123.2141571645625,1.6956155627103726
117,62.037340900000345,2123.8215909090914,2123.143457107824,0.6781338012674496
118,62.594518900001276,2123.745454545455,2123.072613865086,0.6728406803686084
119,63.159037400000685,2144.578409090909,2123.0016255666956,21.576783524213624
120,63.712524600001416,2142.0575000000003,2122.9304903642765,19.12700963572388
121,64.2684465000002,2136.1722727272727,2122.859207091771,13.313065635501516
122,64.82993520000127,2135.3681818181817,2122.7877751879705,12.5804066302112
123,65.4147335000016,2135.0220454545456,2122.716194512661,12.305850941884728
124,65.98888850000004,2134.7411363636365,2122.6444653234557,12.096671040180809
125,66.5482649000005,2134.354090909091,2122.572588267113,11.781502641978022
126,67.12320270000056,2133.976590909091,2122.5005643729214,11.476026536169684
127,67.68430940000144,2134.0670454545457,2122.428395042733,11.638650411812705
128,68.25364350000018,2133.621818181818,2122.356082041304,11.265736140514036
129,68.81690170000002,2133.468409090909,2122.2836275014374,11.18478158947164
130,69.3839723000001,2133.2072727272725,2122.2110339121905,10.996238815082052
131,69.95262309999998,2133.1370454545454,2122.138304116313,10.998741338232321
132,70.54051570000048,2132.7845454545454,2122.065441304286,10.719104150259227
133,71.12765340000078,2132.630909090909,2121.992449014402,10.638460076506817
134,71.70844960000068,2132.3334090909093,2121.919331123921,10.414077966988316
135,72.29993530000138,2132.222045454546,2121.8460918465207,10.375953608025156
136,72.86802490000082,2132.078863636364,2121.772735725201,10.306127911163003
137,73.45367530000112,2131.8538636363637,2121.6992676310783,10.154596005285384
138,74.02918280000084,2131.7975,2121.6256927611776,10.171807238822566
139,74.61428590000104,2131.6354545454546,2121.5520166336396,10.083437911815054
140,75.21267810000064,2131.5495454545458,2121.4782450882667,10.071300366279047
141,75.78185680000024,2131.5413636363637,2121.4043842837273,10.136979352636445
142,76.37838230000123,2131.3102272727274,2121.3304406971724,9.979786575554954
143,76.94903330000125,2131.0506818181816,2121.256421126314,9.794260691867748
144,77.5358535000014,2131.0020454545456,2121.182332684451,9.819712770094611
145,78.12597730000016,2130.9984090909093,2121.108182794605,9.890226296304263
146,78.70342690000145,2130.8224999999998,2121.033979190324,9.788520809675902
147,79.28341290000026,2130.680681818182,2120.959729917911,9.720951900271302
148,79.87655110000014,2130.7295454545456,2120.885443333209,9.844102121336618
149,80.47753090000153,2130.4634090909094,2120.8111280994653,9.652280991444059
150,81.059749,2130.303181818182,2120.736793191224,9.566388626958087
151,81.6600053000002,2130.2029545454548,2120.662447888261,9.540506657193873
152,82.2849188,2130.081590909091,2120.588101772868,9.493489136223161
153,82.87236620000112,2130.104318181818,2120.5137647290344,9.590553452783752
154,83.4632782000008,2130.000681818182,2120.4394469409594,9.561234877222432
155,84.0542458,2129.8611363636364,2120.3651588961234,9.495977467513057
156,84.63538230000086,2129.8365909090912,2120.290911384358,9.54567952473326
157,85.24267080000028,2129.7204545454547,2120.2167154957856,9.503739049669093
158,85.8434373,2129.6886363636363,2120.1425826223885,9.54605374124776
159,86.43685860000004,2129.442727272727,2120.068524456685,9.37420281604227
160,87.0457247000013,2129.415909090909,2119.9945529930656,9.421356097843272
161,87.64046080000116,2129.417727272727,2119.92068052236,9.49704675036719
162,88.23371570000018,2129.338863636364,2119.846919633327,9.491944003036679
163,88.8377487000016,2129.3952272727274,2119.773283215049,9.62194405767832
164,89.45143200000166,2129.301590909091,2119.699784456769,9.601806452321853
165,90.04940630000056,2128.9750000000004,2119.6264368520033,9.348563147997083
166,90.64528380000048,2128.944090909091,2119.5532541979032,9.390836711187603
167,91.24426960000164,2128.8770454545456,2119.480250587247,9.396794867298468
168,91.84953140000108,2128.8747727272726,2119.407440409778,9.467332317494765
169,92.46369080000112,2128.695909090909,2119.334838352391,9.36107073851781
170,93.06627290000142,2128.759090909091,2119.262459401366,9.496631507724942
171,93.67031510000017,2115.6852272727274,2119.190318839006,-3.5050915662786792
172,94.2843709000008,2117.4852272727276,2119.1184322479244,-1.6332049751968043
173,94.8909059000016,2118.1620454545455,2119.046804237503,-0.8847587829573058
174,95.49793480000152,2118.5711363636365,2118.9754343041222,-0.40429794048577605
175,96.10547660000157,2118.7888636363637,2118.9043191742894,-0.11545553792575447
176,96.73174910000124,2118.996363636364,2118.833454308794,0.16290932757010523
177,97.34632110000166,2119.0518181818184,2118.7628348069748,0.28898337484361036
178,97.9503697,2119.1731818181815,2118.6924557733214,0.48072604486014825
179,98.56600590000016,2119.1895454545456,2118.6223123214636,0.567233133082027
180,99.17311860000154,2119.1752272727276,2118.5523995802296,0.6228276924980491
181,99.78632890000154,2119.2375,2118.4827126963874,0.7547873036128294
182,100.40308590000132,2119.287272727273,2118.4132468363996,0.8740258908733267
183,101.02265250000164,2119.281590909091,2118.3439971905955,0.9375937184954637
184,101.64896380000027,2119.364318181818,2118.274958976945,1.089359204872835
185,102.28202810000039,2119.3225,2118.2061274430675,1.1163725569326743
186,102.89799040000071,2119.3352272727275,2118.1374978710305,1.1977294016969608
187,103.51533280000149,2119.3279545454548,2118.069065578204,1.2588889672506411
188,104.13715000000047,2119.2702272727274,2118.000825919834,1.2694013528935102
189,104.75733820000096,2119.2911363636367,2117.932774290976,1.3583620726608387
190,105.38619760000074,2119.3075,2117.864906126827,1.442593873172882
191,106.0113403000014,2119.2777272727276,2117.7972169055392,1.4805103671883444
192,106.64108180000039,2119.235227272727,2117.729702150883,1.50552512184413
193,107.27014280000003,2119.228181818182,2117.6623574334462,1.5658243847356061
194,107.90517670000008,2119.2125,2117.5951783714268,1.617321628573336
195,108.54259610000008,2119.228181818182,2117.528160632537,1.7000211856448004
196,109.22606090000045,2119.2147727272727,2117.4612999356336,1.7534727916390693
197,109.88482490000024,2119.112727272727,2117.394592053332,1.718135219395208
198,110.5330592000009,2119.101136363636,2117.3280328136975,1.7731035499386962
199,111.19249210000089,2119.138409090909,2117.2616180991267,1.8767909917824
200,111.85099840000112,2119.0702272727276,2117.1953438480887,1.8748834246389379
201,112.52243180000005,2119.0613636363637,2117.1292060584,1.9321575779636078
202,113.16874110000026,2119.027954545455,2117.0632007871673,1.9647537582877703
203,113.82444910000049,2119.016590909091,2116.997324152597,2.0192667564942894
204,114.47386140000162,2119.0195454545456,2116.931572335024,2.0879731195213935
205,115.12438070000098,2118.9809090909093,2116.865941578641,2.114967512268322
206,115.79672879999998,2118.9138636363637,2116.8004281936655,2.113435442698119
207,116.46457250000094,2118.9002272727275,2116.7350285571974,2.165198715530096
208,117.11123470000166,2118.9175,2116.669739113169,2.247760886831202
209,117.76907420000134,2118.8906818181817,2116.604556373981,2.286125444200934
210,118.43787140000131,2118.875681818182,2116.539476923115,2.3362048950666576
211,119.1071279000007,2118.8334090909093,2116.474497416347,2.358911674562478
212,119.76070250000157,2118.8186363636364,2116.4096145833278,2.409021780308649
213,120.40530990000116,2118.802727272727,2116.344825228306,2.457902044421189
214,121.04748500000096,2119.6995454545454,2116.2801262317075,3.4194192228378597
215,121.69379200000003,2119.414318181818,2116.2155145516854,3.1988036301327156
216,122.33802110000033,2118.7938636363638,2116.1509872545234,2.642876381840324
217,122.98132860000078,2118.6263636363637,2116.0865415076623,2.5398221287014167
218,123.64011680000112,2149.769772727273,2116.0221745621166,33.74759816515643
219,124.29103050000049,2143.189772727273,2115.957883749217,27.23188897805585
220,124.96074490000137,2139.617272727273,2115.8936674674874,23.723605259785472
221,125.62750330000017,2138.2729545454545,2115.8295249765983,22.443429568856118
222,126.3078854000014,2137.391590909091,2115.7654562864263,21.626134622664722
223,126.95881140000165,2136.8081818181818,2115.7014621165717,21.106719701610018
224,127.61579080000047,2136.554772727273,2115.637543870512,20.91722885676063
225,128.2758939000014,2135.994545454546,2115.5737036191795,20.420841835366446
226,128.93136330000016,2135.6815909090915,2115.509944094966,20.171646814125324
227,129.59068819999993,2135.2786363636365,2115.4462686760266,19.832367687609803
228,130.25423950000004,2135.0486363636364,2115.3826813783994,19.665954985237022
229,130.91384300000027,2134.975454545455,2115.3191868452755,19.65626770017934
230,131.57440240000142,2134.530681818182,2115.2557903417382,19.274891476443827
231,132.23533580000003,2134.3309090909092,2115.1924977544554,19.138411336453828
232,132.90126280000004,2134.188181818182,2115.1293155796216,19.058866238560313
233,133.57657500000096,2134.186818181818,2115.0662509186413,19.12056726317678
234,134.2531826000013,2133.7520454545456,2115.003311475613,18.748733978932705
235,134.94718880000073,2133.876818181818,2114.9405055592806,18.93631262253757
236,135.6130114000007,2133.569090909091,2114.877842071275,18.691248837815692
237,136.2789414000017,2133.558181818182,2114.8153305120463,18.74285130613589
238,136.94260480000048,2133.380909090909,2114.752980973113,18.62792811779582
239,137.60675980000087,2133.275227272727,2114.6908041386955,18.584423134031567
240,138.27730470000097,2133.0400000000004,2114.6288112820807,18.411188717919686
241,138.9460392000001,2132.8172727272727,2114.5670142642466,18.250258463026057
242,139.61666760000116,2132.554090909091,2114.505425528384,18.048665380707007
243,140.31182900000022,2132.6906818181815,2114.4440580948067,18.246623723374796
244,141.00528000000122,2132.441363636364,2114.382925554579,18.05843808178497
245,141.67455930000142,2132.365227272727,2114.3220420757725,18.04318519695471
246,142.34362320000037,2132.2952272727275,2114.261422397518,18.033804875209626
247,143.0352913000006,2132.0552272727273,2114.2010818295203,17.854145443207017
248,143.7107833000009,2132.0861363636363,2114.1410362517627,17.94510011187367
249,144.38026160000118,2131.989545454546,2114.081302108827,17.9082433457188
250,145.05957130000024,2131.8786363636364,2114.02189641277,17.85673995086654
251,145.75243460000092,2131.5350000000003,2113.962836741956,17.572163258044384
252,146.43513970000097,2131.732272727273,2113.9041412394304,17.82813148784271
253,147.10780550000163,2131.506590909091,2113.84582860392,17.66076230517092
254,147.7812556000008,2131.405227272727,2113.787918097926,17.617309174800994
255,148.45438510000167,2131.5320454545454,2113.7304295424337,17.80161591211163
256,149.12985650000155,2131.216363636364,2113.6733833155336,17.54298032083034
