,Time (s),J (nA/cm2),bkg,J-bkg
0,0.1419421999999031,280.13136363636363,279.8423862260846,0.288977410279017
1,0.6429705000000467,280.10045454545457,279.83284152970714,0.267613015747429
2,1.1514862000003632,280.09159090909094,279.8232968424679,0.2682940666230138
3,1.6540829000005033,280.0584090909091,279.8137521819678,0.24465690894129466
4,2.157455300000038,280.0279545454546,279.80420757429187,0.22374697116271136
5,2.6724499000001742,280.02659090909094,279.79466305326184,0.23192785582909892
6,3.179272399999718,280.0272727272727,279.78511865977487,0.24215406749783597
7,3.6816455999996833,279.97318181818184,279.77557444206235,0.19760737611949253
8,4.1845579999999245,279.96318181818185,279.7660304560132,0.19715136216865403
9,4.686023000000205,279.9415909090909,279.7564867637652,0.1851041453256812
10,5.191301400000157,279.94272727272727,279.7469434336908,0.1957838390364941
11,5.695551900000282,279.93204545454546,279.7374005400156,0.1946449145298743
12,6.196662600000309,279.9202272727273,279.7278581631569,0.192369109570393
13,6.702487499999727,279.8759090909091,279.71831638968706,0.15759270122202906
14,7.217392800000198,279.86977272727273,279.7087753122614,0.16099741501130893
15,7.7318764999999985,279.85681818181826,279.699235028519,0.15758315329924244
16,8.236167600000051,279.8443181818182,279.68969564119004,0.15462254062816783
17,8.739279299999907,279.8238636363636,279.6801572579878,0.143706378375839
18,9.244045700000243,279.82318181818187,279.67061999151514,0.15256182666672657
19,9.746445599999788,279.80954545454546,279.66108395891956,0.14846149562589517
20,10.251218000000335,279.77159090909095,279.6515492821728,0.12004162691812326
21,10.754070300000421,279.76022727272726,279.64201608794133,0.11821118478593462
22,11.269052800000281,279.74181818181825,279.6324845066878,0.10933367513047187
23,11.771428699999888,279.7481818181819,279.62295467261265,0.12522714556922665
24,12.27487850000034,279.70704545454544,279.6134267233741,0.09361873117131836
25,12.78028919999997,279.71818181818185,279.6039008005902,0.11428101759162246
26,13.284082099999978,279.70727272727277,279.5943770488395,0.11289567843328996
27,13.785187500000575,279.6709090909091,279.58485561631426,0.08605347459484847
28,14.289396000000131,279.6736363636364,279.57533665477706,0.09829970885931516
29,14.80483710000044,279.6322727272727,279.56582031871164,0.06645240856107648
30,15.31771579999986,279.6327272727273,279.55630676571025,0.07642050701707603
31,15.824248800000532,279.63750000000005,279.54679615546655,0.09070384453349334
32,16.327812300000005,279.63068181818187,279.537288650091,0.09339316809086995
33,16.842403200000263,279.61863636363637,279.5277844145621,0.0908519490742492
34,17.357792400000108,279.5968181818182,279.5182836168121,0.0785345650061231
35,17.87397430000056,279.5706818181818,279.50878642764604,0.06189539053576709
36,18.3749770000004,279.5697727272727,279.4992930203523,0.07047970692042327
37,18.881652699999904,279.55477272727273,279.48980357017666,0.06496915709607265
38,19.384537699999782,279.50636363636363,279.48031825459356,0.026045381770074982
39,19.89157189999969,279.4886363636364,279.47083725313206,0.017799110504313376
40,20.394983799999864,279.4890909090909,279.4613607461449,0.027730162945999837
41,20.89614570000049,279.51409090909095,279.4518889145477,0.062201994543272576
42,21.39979680000033,279.50750000000005,279.44242194013293,0.06507805986711901
43,21.90470550000009,279.4893181818182,279.43296000666027,0.05635817515792496
44,22.406956699999682,279.44818181818187,279.42350329994724,0.02467851823462297
45,22.912263500000336,279.43136363636364,279.41405200759357,0.01731162877007364
46,23.420351400000072,279.4365909090909,279.40460631797924,0.03198459111166585
47,23.927511900000354,279.42454545454547,279.39516642003196,0.02937903451351076
48,24.4300417000004,279.43227272727273,279.3857325036907,0.04654022358204202
49,24.944332300000497,279.40727272727275,279.37630475982337,0.030967967449385014
50,25.454134100000367,279.40272727272725,279.3668833807699,0.03584389195737003
51,25.95411830000012,279.3806818181818,279.3574685598491,0.023213258332702935
52,26.460203800000272,279.3636363636364,279.34806049151365,0.015575872122724377
53,26.96412169999985,279.3568181818182,279.33865937094987,0.0181588108683286
54,27.473766699999942,279.35068181818184,279.32926539383664,0.021416424345204632
55,27.98344350000025,279.34590909090906,279.31987875642716,0.026030334481902173
56,28.49925200000053,279.3240909090909,279.31049965565177,0.013591253439130924
57,29.010739500000447,279.30295454545455,279.30112828926394,0.001826256190611275
58,29.531026000000566,279.3118181818182,279.29176485544684,0.020053326371339608
59,30.057181799999853,279.2861363636364,279.28240955244155,0.0037268111948378646
60,30.568425899999966,279.29568181818183,279.27306257912306,0.022619239058769836
61,31.079312900000332,279.2659090909091,279.26372413448433,0.002184956424741813
62,31.591069300000527,279.2670454545455,279.2543944182337,0.012651036311808639
63,32.10003980000056,279.25863636363636,279.2450736301485,0.01356273348784498
64,32.61328070000036,279.24522727272733,279.2357619704063,0.009465302321018498
65,33.130327699999725,279.21977272727275,279.22645963961367,-0.006686912340910567
66,33.6495218,279.2220454545454,279.21716683867646,0.004878615868960878
67,34.16295979999995,279.21659090909094,279.2078837475662,0.008707161524739604
68,34.68696160000036,279.20045454545453,279.1986105464087,0.001843999045831879
69,35.21959440000046,279.2006818181818,279.189347415605,0.011334402576778757
70,35.7369604000005,279.18000000000006,279.1800945356146,-9.453561455075032e-05
71,36.25878970000031,279.1806818181818,279.1708520872552,0.009829730926639968
72,36.784519900000305,279.15909090909093,279.16162025104853,-0.002529341957597353
73,37.31460040000002,279.1381818181818,279.15239920782733,-0.014217389645523326
74,37.8645004,279.1409090909091,279.1431891305058,-0.002280039596712413
75,38.39051780000045,279.11431818181825,279.1339901474884,-0.019671965670170266
76,38.91866430000027,279.1202272727273,279.1248023800415,-0.004575107314224169
77,39.45687120000002,279.114090909091,279.11562588784534,-0.0015349787543641469
78,39.98931249999987,279.0968181818182,279.106460716257,-0.009642534438796702
79,40.52304340000046,279.0838636363636,279.0973069058281,-0.013443269464460172
80,41.054795600000034,279.0672727272728,279.08816446692276,-0.02089173964998281
81,41.58969859999979,279.0515909090909,279.0790333678189,-0.02744245872798956
82,42.12386969999989,279.08068181818186,279.0699135113897,0.010768306792158455
83,42.66303990000051,279.05977272727273,279.0608047145953,-0.0010319873225625997
84,43.19814010000027,279.049090909091,279.0517067947365,-0.0026158856455253954
85,43.74810780000007,279.0336363636364,279.0426195658834,-0.008983202247009103
86,44.281013100000564,279.02909090909094,279.0335428339164,-0.004451924825445985
87,44.82064629999968,278.9838636363637,279.0244763765927,-0.04061274022899397
88,45.358188000000155,279.00772727272727,279.01541995773204,-0.007692685004769828
89,45.89388080000026,278.9915909090909,279.0063732140097,-0.014782304918810496
90,46.43099220000022,278.9904545454546,278.99733575801787,-0.006881212563257577
91,46.97252420000041,278.9584090909091,278.9883071560704,-0.02989806516131921
92,47.515850200000386,278.9868181818182,278.9792869529385,0.007531228879713581
93,48.06113819999973,278.96454545454543,278.9702745997927,-0.005729145247244105
94,48.63065590000042,278.94750000000005,278.9612695480417,-0.013769548041636881
95,49.174976700000116,278.9411363636364,278.9522712311583,-0.011134867521889191
96,49.716869699999734,278.94000000000005,278.9432790395076,-0.0032790395075608103
97,50.264817799999946,278.93409090909097,278.9342923285952,-0.00020141950420793364
98,50.811633000000256,278.9027272727273,278.9253104436609,-0.022583170933614838
99,51.366918599999735,278.9202272727273,278.91633272931426,0.0038945434130255308
100,51.91626470000028,278.91568181818184,278.9073584594647,0.008323358717120755
101,52.48310769999989,278.87295454545455,278.8983869081446,-0.02543236269002591
102,53.02556830000049,278.8725,278.88941734964953,-0.016917349649531843
103,53.573735200000556,278.8661363636364,278.88044897865507,-0.014312615018695851
104,54.11576669999977,278.87,278.8714809368746,-0.0014809368746000473
105,54.65792450000026,278.8295454545455,278.8625123212133,-0.032966866667777595
106,55.20644210000046,278.81772727272727,278.85354222394017,-0.035814951212898904
107,55.751653199999964,278.8143181818182,278.8445696341166,-0.030251452298443837
108,56.29357290000007,278.8122727272727,278.8355934286795,-0.023320701406760236
109,56.84939510000004,278.79727272727274,278.82661238985867,-0.029339662585925907
110,57.410807100000056,278.7802272727273,278.81762522687524,-0.03739795414793434
111,57.95868580000024,278.7834090909091,278.8086305570977,-0.025221466188554587
112,58.51289170000018,278.76204545454544,278.7996268808147,-0.03758142626924155
113,59.07682010000008,278.76113636363635,278.790612619355,-0.029476255718634548
114,59.636580100000174,278.775,278.78158607639307,-0.006586076393091389
115,60.19699450000007,278.72318181818184,278.7725454633231,-0.049363645141283996
116,60.789595799999915,279.11136363636365,278.7634889709209,0.3478746654427596
117,61.345827799999824,278.7645454545455,278.75441463542154,0.01013081912395819
118,61.9091537000004,279.1118181818182,278.7453205040611,0.3664976777570814
119,62.4871006000003,278.76204545454544,278.73620462439595,0.025840830149491012
120,63.09568300000046,278.70727272727277,278.7270650555723,-0.019792328299558903
121,63.6501159999998,290.2831818181818,278.71789985755345,11.56528196062834
122,64.19049020000055,284.3279545454546,278.7087070283395,5.61924751711507
123,64.74457170000004,283.3534090909091,278.699484931657,4.653924159252085
124,65.2973248999997,283.2961363636364,278.6902321089286,4.605904254707752
125,65.85107049999988,283.11795454545455,278.6809472487467,4.437007296707861
126,66.40488060000008,283.1865909090909,278.6716291853552,4.514961723735723
127,66.95586329999968,283.1375,278.6622768933081,4.475223106691885
128,67.5167548999998,283.01500000000004,278.6528894899352,4.362110510064838
129,68.07485900000027,282.9506818181818,278.6434662340852,4.307215584096582
130,68.62943939999968,282.82204545454545,278.6340065225492,4.188038931996232
131,69.18649580000056,282.66818181818184,278.6245098883246,4.043671929857226
132,69.74384370000008,282.8829545454546,278.6149759968464,4.267978548608198
133,70.30483189999995,282.7072727272727,278.60540464142207,4.10186808585064
134,70.86914570000044,282.71659090909094,278.5957957503243,4.120795158766612
135,71.42996560000029,282.67090909090905,278.58614938153835,4.084759709370701
136,71.9949069000004,282.6865909090909,278.57646572336046,4.110125185730453
137,72.56625020000048,282.56954545454545,278.5667450932576,4.002800361287825
138,73.13411150000049,282.56113636363636,278.55698793867066,4.004148424965706
139,73.70142570000009,282.46909090909094,278.54719483362004,3.9218960754708974
140,74.2715092999997,282.5629545454546,278.5373664787486,4.025588066706007
141,74.84271510000052,282.4111363636364,278.5275036987204,3.8836326649159787
142,75.4148439999999,282.4590909090909,278.5176074454998,3.941483463591112
143,75.98566500000015,282.43454545454546,278.5076787938622,3.926866660683231
144,76.55808369999976,282.4052272727273,278.49771894322396,3.9075083295033437
145,77.15113360000032,282.3209090909091,278.4877292171796,3.8331798737294775
146,77.74534709999988,282.3681818181818,278.47771106289,3.890470755291801
147,78.31475049999972,282.3963636363637,278.46766604873176,3.928697587631916
148,78.88982430000031,282.3361363636364,278.4575958661087,3.8785404975276947
149,79.46471500000008,282.30045454545456,278.4475023306612,3.8529522147933335
150,80.0483310999998,282.23727272727274,278.43738738067987,3.7998853465928732
151,80.62917689999996,282.2386363636364,278.4272530762961,3.811383287340277
152,81.2126618000002,282.2179545454546,278.4171015978044,3.800852947650185
153,81.80425830000058,282.1831818181818,278.4069352460258,3.776246572156026
154,82.40016990000004,282.1652272727273,278.3967564419749,3.768470830752392
155,82.9729851000002,282.1670454545455,278.3865677260815,3.78047772846395
156,83.55476120000004,282.1390909090909,278.376371757945,3.762719151145916
157,84.13323649999984,282.1552272727273,278.36617131671386,3.789055956013442
158,84.71073160000014,282.0984090909091,278.35596930052446,3.742439790384651
159,85.29228620000048,282.1331818181818,278.34576872733345,3.7874130908483608
160,85.88017910000052,282.05204545454546,278.33557273344377,3.7164727211016952
161,86.46914110000034,282.0659090909091,278.3253845749269,3.7405245159822016
162,87.0643170000003,282.0254545454546,278.3152076253793,3.710246920075292
163,87.64993870000036,281.9984090909091,278.3050453766833,3.693363714225768
164,88.2425371999998,282.01750000000004,278.2949014380496,3.7225985619504627
165,88.83054220000032,282.0015909090909,278.2847795354832,3.7168113736076975
166,89.43574950000038,282.03659090909093,278.2746835127081,3.76190739638281
167,90.02903969999988,281.93454545454546,278.26461733098415,3.6699281235613057
168,90.61498380000012,281.93545454545455,278.25458507053315,3.680869474921394
169,91.22461639999985,281.90477272727276,278.2445909276302,3.660181799642544
170,91.81474010000056,281.92545454545456,278.2346392149497,3.6908153305048472
171,92.41003490000004,281.9170454545455,278.22473436091104,3.69231109363443
172,93.01296420000016,281.8834090909091,278.2148809106473,3.6685281802617737
173,93.6087164999999,277.41318181818184,278.2050835260528,-0.7919017078709771
174,94.21095810000044,277.6331818181818,278.19534698503077,-0.5621651668489562
175,94.81614379999974,277.8831818181818,278.1856735863134,-0.3024917681315742
176,95.4183665999999,277.9927272727273,278.17606386868795,-0.1833365959606681
177,96.03377619999992,278.04136363636366,278.16651742394447,-0.12515378758081397
178,96.63988080000036,278.0736363636364,278.15703326990933,-0.08339690627292384
179,97.26287500000036,278.07204545454545,278.1476100325955,-0.07556457805003447
180,97.88979459999972,278.08727272727276,278.13824607692914,-0.05097334965637401
181,98.49299320000046,278.12227272727273,278.1289395312698,-0.006666803997063653
182,99.11170289999973,278.1170454545455,278.11968836439695,-0.002642909851431341
183,99.71884279999995,278.0797727272727,278.1104905242189,-0.03071779694619181
184,100.33738369999992,278.08409090909095,278.10134395036977,-0.017253041278820547
185,100.96295740000005,278.1045454545455,278.09224648631704,0.01229896822843557
186,101.5784179000002,278.1140909090909,278.08319592151463,0.030894987576289168
187,102.19218290000026,278.08727272727276,278.0741900458056,0.013082681467153634
188,102.82083620000049,278.0790909090909,278.0652266500099,0.013864259081003638
189,103.43833369999993,278.0836363636364,278.05630352536116,0.027332838275242466
190,104.05212870000014,278.0520454545455,278.0474184635316,0.004626991013935822
191,104.67253950000031,278.0670454545455,278.03856925705765,0.02847619748786201
192,105.29218910000054,278.06886363636363,278.02975369862196,0.03910993774167082
193,105.91282740000042,278.0625,278.0209695818076,0.041530418192394336
194,106.54218760000003,278.05613636363637,278.0122147014343,0.043921662202080824
195,107.15958969999974,278.06863636363636,278.0034868536351,0.06514951000127667
196,107.79072390000056,278.0370454545455,277.994783835932,0.0422616186134519
197,108.42329359999985,278.0152272727273,277.9861034479075,0.029123824819805577
198,109.04838650000056,278.0320454545455,277.9774434904799,0.05460196406556861
199,109.70848089999981,278.01,277.9688017654888,0.041198234511170995
200,110.34854929999983,278.0234090909091,277.9601760765003,0.06323301440880869
201,110.9747325999997,278.0056818181818,277.95156422838335,0.054117589798465815
202,111.60223360000057,277.9997727272727,277.9429640280065,0.05680869926624155
203,112.24098860000049,277.98499999999996,277.93437328394964,0.0506267160503171
204,112.86971100000028,278.0140909090909,277.925789806589,0.08830110250187317
205,113.50172600000042,277.98045454545456,277.91721140790196,0.06324313755260391
206,114.1375506000004,277.95727272727277,277.9086359026578,0.04863682461495955
207,114.77285980000033,277.9475,277.90006110762596,0.04743889237403209
208,115.40766660000008,277.9577272727273,277.89148484111365,0.06624243161365939
209,116.04151869999987,277.9427272727273,277.8829049229283,0.05982234979904888
210,116.67755829999987,277.9279545454546,277.874319174972,0.05363537048259559
211,117.32253000000037,277.9436363636364,277.86572542103875,0.07791094259766851
212,117.9647474000003,277.94045454545454,277.85712148661855,0.08333305883598996
213,118.6086978000003,277.91159090909093,277.84850519966517,0.06308570942576353
214,119.24389930000052,277.8859090909091,277.83987439076753,0.04603470014154709
215,119.89492210000026,277.8713636363637,277.8312268925095,0.04013674385419108
216,120.53818700000011,278.15136363636367,277.8225605389307,0.3288030974329672
217,121.18383470000026,277.9186363636364,277.81387316533977,0.10476319829660952
218,121.82794420000027,278.2293181818182,277.8051626174432,0.4241555643749848
219,122.48531120000007,277.91727272727275,277.79642674426026,0.12084598301248661
220,123.13545160000012,277.8759090909091,277.7876634082232,0.08824568268590838
221,123.77918709999994,290.32909090909095,277.7788704755856,12.55022043350533
222,124.4267603999997,286.2359090909091,277.7700458153919,8.465863275517222
223,125.08098440000049,285.83818181818185,277.7611876935591,8.076994124622729
224,125.74425789999987,285.51545454545453,277.75229464371847,7.76315990173606
225,126.39310130000013,285.3911363636364,277.7433654549181,7.647770908718314
226,127.05511250000018,285.16227272727275,277.73439916169843,7.427873565574316
227,127.7142001000002,285.0520454545455,277.725395040444,7.326650414101493
228,128.38552359999994,285.0872727272727,277.7163526024293,7.370920124843394
229,129.04590420000022,284.9275,277.7072715906176,7.2202284093824005
230,129.6930908000004,284.97159090909093,277.6981519810614,7.27343892802952
231,130.35211160000017,284.9359090909091,277.6889939781367,7.246915112772399
232,131.0043453999997,284.8884090909091,277.6797980162258,7.20861107468329
233,131.66685529999995,284.74045454545455,277.67056475887864,7.069889786575914
234,132.32458039999983,284.79795454545456,277.6612950976015,7.136659447853049
235,132.9882047000001,284.6822727272728,277.6519901474702,7.030282579802588
236,133.6591715000004,284.67545454545456,277.64265124924145,7.032803296213103
237,134.33094600000004,284.60477272727275,277.63327996598923,6.971492761283514
238,134.98492220000026,284.5443181818182,277.6238780831841,6.920440098634117
239,135.64203869999983,284.61636363636364,277.6144476067546,7.001916029609049
240,136.29730019999988,284.4915909090909,277.604990761473,6.886600147617912
241,136.9643629000002,284.4690909090909,277.59550999353144,6.873580915559444
242,137.6259657999999,284.48295454545456,277.5860079668954,6.896946578559152
243,138.2919185000001,284.3845454545455,277.57648756289217,6.808057891653334
244,138.9606346999999,284.36,277.5669518809495,6.793048119050525
245,139.62811370000054,284.2706818181818,277.557404235785,6.713277582396813
246,140.30853990000014,284.3809090909091,277.5478481569311,6.833060933978004
247,140.98289920000025,284.3052272727273,277.5382873862125,6.766939886514763
248,141.64917460000015,284.3384090909091,277.5287258815346,6.809683209374498
249,142.32568450000053,284.26454545454544,277.519167814792,6.745377639753428
250,143.0019097000004,284.23,277.5096175732203,6.720382426779736
251,143.6744206000003,284.24204545454546,277.5000797573629,6.741965697182536
252,144.34267040000032,284.14704545454543,277.4905591802807,6.656486274264751
253,145.01247430000058,283.9770454545455,277.4810608682339,6.495984586311579
254,145.69059990000005,284.1825,277.4715900579796,6.7109099420204075
