Time (s),Current (A),Voltage (V)
0.33798160000151256,-9.412756e-08,-60.42779
0.8526156000007177,-9.411995e-08,-60.42781
1.3686412000006385,-9.411193e-08,-60.42784
1.8724907000014355,-9.410057e-08,-60.42796
2.3844022000012046,-9.40942e-08,-60.42787
2.8987596000006306,-9.408807e-08,-60.42778
3.4011464000013802,-9.407756e-08,-60.42785
3.9028753000002325,-9.406956e-08,-60.42785
4.417847400000028,-9.406217e-08,-60.42795
4.932045900000958,-9.405336e-08,-60.42795
5.4477396000002045,-9.404907e-08,-60.42785
5.9477709000002505,-9.404214e-08,-60.42793
6.464460000001054,-9.40349e-08,-60.42789
6.978413000000728,-9.40267e-08,-60.42794
7.492321200001243,-9.401945e-08,-60.42796
8.007957400001033,-9.401259e-08,-60.42791
8.522636500001681,-9.4006e-08,-60.42792
9.023881300001449,-9.399837e-08,-60.42788
9.541231100000005,-9.399324e-08,-60.42791
10.056015100000877,-9.398791e-08,-60.42786
10.57169370000156,-9.39799e-08,-60.42792
11.07354900000064,-9.397581e-08,-60.42793
11.586308400001144,-9.397013e-08,-60.42783
12.087442800000645,-9.396353e-08,-60.4279
12.601921600000423,-9.395772e-08,-60.42801
13.10244860000057,-9.395152e-08,-60.42796
13.618196700001135,-9.394702e-08,-60.42787
14.13458990000072,-9.394086e-08,-60.42805
14.648657000001549,-9.393438e-08,-60.42802
15.164248800001587,-9.393037e-08,-60.428
15.666189800000211,-9.392443e-08,-60.42806
16.1674122000004,-9.39179e-08,-60.42797
16.670236800000566,-9.391339e-08,-60.42798
17.180765400000382,-9.39079e-08,-60.42803
17.682194600000003,-9.39036e-08,-60.42808
18.195196300001044,-9.389841e-08,-60.42796
18.697338400001172,-9.389299e-08,-60.42801
19.21128470000076,-9.388729e-08,-60.42807
19.713666500001636,-9.388318e-08,-60.42802
20.22887940000146,-9.387652e-08,-60.42806
20.73014520000106,-9.387206e-08,-60.42813
21.230233900001622,-9.386711e-08,-60.4281
21.744167700000617,-9.386275e-08,-60.42801
22.260406200000943,-9.385681e-08,-60.42793
22.772560700001122,-9.385266e-08,-60.42802
23.288805300000604,-9.384671e-08,-60.42805
23.804132500001288,-9.384243e-08,-60.42799
24.30669460000172,-9.383724e-08,-60.42793
24.823990400000184,-9.383373e-08,-60.42802
25.33716810000078,-9.382818e-08,-60.42797
25.851279300000897,-9.382447e-08,-60.4279
26.355204200001026,-9.381991e-08,-60.42795
26.855884500000684,-9.381615e-08,-60.42806
27.367987800000265,-9.381259e-08,-60.42803
27.882667400001083,-9.380916e-08,-60.42797
28.384984300000724,-9.380319e-08,-60.42804
28.898193100001663,-9.380169e-08,-60.42799
29.413312300001053,-9.379498e-08,-60.42803
29.92530970000007,-9.379016e-08,-60.42801
30.437630700000227,-9.378588e-08,-60.42796
30.952425000001313,-9.378212e-08,-60.42794
31.467626999999993,-9.37786e-08,-60.42796
31.975469400000293,-9.377405e-08,-60.428
32.48909930000082,-9.376986e-08,-60.42803
33.00276960000156,-9.376765e-08,-60.42804
33.51581030000125,-9.376453e-08,-60.42797
34.0314210000015,-9.375915e-08,-60.42794
34.53290840000045,-9.375564e-08,-60.42796
35.04781350000121,-9.375203e-08,-60.42794
35.548122300000614,-9.374924e-08,-60.42796
36.062869400000636,-9.374465e-08,-60.42789
36.56687270000111,-9.374142e-08,-60.42791
37.08131520000097,-9.373752e-08,-60.42803
37.585971400001654,-9.373346e-08,-60.42794
38.0883173000002,-9.372879e-08,-60.42796
38.6029767,-9.372653e-08,-60.42795
39.10608530000172,-9.372335e-08,-60.42793
39.64457890000085,-9.371894e-08,-60.42798
40.150076300000364,-9.37161e-08,-60.42794
40.664846900001066,-9.371245e-08,-60.42777
41.16630510000141,-9.37078e-08,-60.42785
41.68093360000057,-9.370379e-08,-60.42794
42.181120700000974,-9.370191e-08,-60.42789
42.68366040000001,-9.369759e-08,-60.42792
43.19750710000153,-9.369335e-08,-60.42798
43.71313670000018,-9.369207e-08,-60.42787
44.22854280000138,-9.368757e-08,-60.42794
44.72985920000065,-9.368497e-08,-60.42795
45.24302700000044,-9.368065e-08,-60.42798
45.74474220000047,-9.367732e-08,-60.4279
46.257630200001586,-9.367373e-08,-60.42801
46.75883850000173,-9.36702e-08,-60.42791
47.262233900000865,-9.366881e-08,-60.42786
47.77455800000098,-9.366474e-08,-60.42788
48.27683810000053,-9.366116e-08,-60.4279
48.77957480000077,-9.365913e-08,-60.42794
49.285680000000866,-9.365491e-08,-60.42788
49.791903500001354,-9.364982e-08,-60.42789
50.30638820000058,-9.364771e-08,-60.42796
50.82131890000164,-9.364501e-08,-60.4279
51.322612500000105,-9.364167e-08,-60.42794
51.857534900000246,-9.363873e-08,-60.42787
52.36808100000053,-9.363865e-08,-60.4279
52.883544000000256,-9.363391e-08,-60.42791
53.395281400000385,-9.363151e-08,-60.42796
53.9130434000017,-9.362885e-08,-60.42801
54.43864010000107,-9.36244e-08,-60.42797
54.958130600000004,-9.362071e-08,-60.42792
55.46626080000169,-9.36184e-08,-60.4279
55.9763597000001,-9.361608e-08,-60.42788
56.498830100001214,-9.36144e-08,-60.42794
57.010125300001164,-9.3611e-08,-60.4279
57.54068340000049,-9.360635e-08,-60.42792
58.08229520000168,-9.360502e-08,-60.42797
58.61550140000145,-9.360227e-08,-60.42791
59.15129340000021,-9.359732e-08,-60.42793
59.679095500001495,-9.359817e-08,-60.42794
60.210610400001315,-9.359267e-08,-60.42792
60.74460590000126,-9.359054e-08,-60.42799
61.266137500000696,-9.35862e-08,-60.42793
61.783792000000176,-9.358469e-08,-60.42795
62.3093553000017,-9.358246e-08,-60.42796
62.84161050000148,-9.357926e-08,-60.42794
63.35919070000091,-9.357775e-08,-60.42798
63.87439240000094,-9.357385e-08,-60.428
64.39096800000152,-9.357142e-08,-60.42799
64.91055330000017,-9.356967e-08,-60.4279
65.42265230000157,-9.35645e-08,-60.42793
65.94133630000033,-9.356217e-08,-60.42791
66.46062220000022,-9.356026e-08,-60.42787
66.98406780000005,-9.355627e-08,-60.4279
67.50980230000096,-9.355565e-08,-60.42788
68.03858340000079,-9.355178e-08,-60.4278
68.56568010000046,-9.354736e-08,-60.4279
69.09321470000032,-9.354741e-08,-60.42791
69.61780510000062,-9.354201e-08,-60.42785
70.14784430000145,-9.354105e-08,-60.42783
70.67645400000038,-9.353867e-08,-60.42788
71.2033261000015,-9.35373e-08,-60.42784
71.73262920000161,-9.353388e-08,-60.42794
72.26581660000011,-9.35289e-08,-60.42789
72.79615300000114,-9.352834e-08,-60.42783
73.33250640000006,-9.352554e-08,-60.42789
73.86823610000101,-9.352372e-08,-60.42777
74.40643640000053,-9.352265e-08,-60.42778
74.94766380000146,-9.351764e-08,-60.42786
75.48322189999999,-9.35155e-08,-60.42785
76.01761250000163,-9.351421e-08,-60.42782
76.54908539999997,-9.351142e-08,-60.42782
77.12625140000091,-9.350934e-08,-60.42773
77.67854090000037,-9.350514e-08,-60.42776
78.22230300000047,-9.350605e-08,-60.42772
78.7653289000009,-9.350158e-08,-60.42772
79.31144140000106,-9.349888e-08,-60.42778
79.85986060000141,-9.349687e-08,-60.4278
80.41804970000157,-9.349613e-08,-60.42778
80.96758350000164,-9.349395e-08,-60.42782
81.5291769000014,-9.348933e-08,-60.42781
82.07677740000145,-9.348877e-08,-60.42783
82.64934690000155,-9.348615e-08,-60.42764
83.19197540000096,-9.348405e-08,-60.42769
83.72943360000136,-9.347985e-08,-60.42773
84.26933230000031,-9.347992e-08,-60.42765
84.81618560000061,-9.34774e-08,-60.42775
85.36613470000157,-9.347443e-08,-60.42766
85.90872300000046,-9.346951e-08,-60.4276
86.45316520000051,-9.347082e-08,-60.4277
87.00299500000074,-9.346819e-08,-60.4276
87.55528090000007,-9.34641e-08,-60.42767
88.12668800000029,-9.34607e-08,-60.42767
88.68480170000112,-9.346092e-08,-60.42762
89.23499220000122,-9.345955e-08,-60.42768
89.78528750000078,-9.345587e-08,-60.42774
90.36162640000111,-9.349662e-08,-60.42767
90.92678710000109,-9.345553e-08,-60.42769
91.4811324000002,-9.349603e-08,-60.42764
92.03734090000034,-9.344815e-08,-60.4277
92.59451890000128,-9.34448e-08,-60.42774
93.15903740000067,-9.436145e-08,-60.4277
93.71252460000142,-9.425053e-08,-60.42768
94.26844650000021,-9.399158e-08,-60.42767
94.82993520000127,-9.39562e-08,-60.42779
95.4147335000016,-9.394097e-08,-60.42764
95.98888850000003,-9.392861e-08,-60.42773
96.5482649000005,-9.391158e-08,-60.42762
97.12320270000055,-9.389497e-08,-60.42772
97.68430940000144,-9.389895e-08,-60.42772
98.25364350000018,-9.387936e-08,-60.42763
98.81690170000002,-9.387261e-08,-60.42768
99.3839723000001,-9.386112e-08,-60.42769
99.95262309999998,-9.385803e-08,-60.42767
100.54051570000047,-9.384252e-08,-60.4277
101.12765340000078,-9.383576e-08,-60.4277
101.70844960000068,-9.382267e-08,-60.4277
102.29993530000138,-9.381777e-08,-60.42772
102.86802490000082,-9.381147e-08,-60.42757
103.45367530000112,-9.380157e-08,-60.42756
104.02918280000085,-9.379909e-08,-60.4276
104.61428590000105,-9.379196e-08,-60.42755
105.21267810000063,-9.378818e-08,-60.42752
105.78185680000024,-9.378782e-08,-60.42756
106.37838230000125,-9.377765e-08,-60.4275
106.94903330000125,-9.376623e-08,-60.42752
107.5358535000014,-9.376409e-08,-60.42744
108.12597730000016,-9.376393e-08,-60.42749
108.70342690000143,-9.375619e-08,-60.42754
109.28341290000026,-9.374995e-08,-60.42754
109.87655110000014,-9.37521e-08,-60.42752
110.47753090000151,-9.374039e-08,-60.42756
111.05974900000001,-9.373334e-08,-60.42763
111.6600053000002,-9.372893e-08,-60.42752
112.28491880000001,-9.372359e-08,-60.42751
112.87236620000112,-9.372459e-08,-60.42756
113.46327820000079,-9.372003e-08,-60.42752
114.05424579999999,-9.371389e-08,-60.42751
114.63538230000086,-9.371281e-08,-60.42746
115.24267080000027,-9.37077e-08,-60.42749
115.8434373,-9.37063e-08,-60.42748
116.43685860000005,-9.369548e-08,-60.42753
117.0457247000013,-9.36943e-08,-60.42758
117.64046080000116,-9.369438e-08,-60.42758
118.23371570000018,-9.369091e-08,-60.42756
118.83774870000161,-9.369339e-08,-60.42758
119.45143200000166,-9.368927e-08,-60.42754
120.04940630000056,-9.36749e-08,-60.42757
120.64528380000047,-9.367354e-08,-60.42755
121.24426960000164,-9.367059e-08,-60.42747
121.84953140000107,-9.367049e-08,-60.42755
122.46369080000113,-9.366262e-08,-60.42752
123.06627290000142,-9.36654e-08,-60.42749
123.67031510000015,-9.309015e-08,-60.42754
124.2843709000008,-9.316935e-08,-60.42744
124.8909059000016,-9.319913e-08,-60.42747
125.49793480000153,-9.321713e-08,-60.42743
126.10547660000157,-9.322671e-08,-60.42751
126.73174910000125,-9.323584e-08,-60.42759
127.34632110000166,-9.323828e-08,-60.42755
127.95036970000001,-9.324362e-08,-60.42758
128.56600590000016,-9.324434e-08,-60.42752
129.17311860000154,-9.324371e-08,-60.42751
129.78632890000154,-9.324645e-08,-60.42752
130.40308590000132,-9.324864e-08,-60.42754
131.02265250000164,-9.324839e-08,-60.42743
131.64896380000027,-9.325203e-08,-60.42754
132.2820281000004,-9.325019e-08,-60.42744
132.8979904000007,-9.325075e-08,-60.42741
133.5153328000015,-9.325043e-08,-60.42749
134.13715000000047,-9.324789e-08,-60.42738
134.75733820000096,-9.324881e-08,-60.42751
135.38619760000074,-9.324953e-08,-60.42739
136.0113403000014,-9.324822e-08,-60.42739
136.6410818000004,-9.324635e-08,-60.4274
137.27014280000003,-9.324604e-08,-60.42742
137.90517670000008,-9.324535e-08,-60.42732
138.54259610000008,-9.324604e-08,-60.42736
139.22606090000045,-9.324545e-08,-60.42734
139.88482490000024,-9.324096e-08,-60.42733
140.53305920000093,-9.324045e-08,-60.42728
141.1924921000009,-9.324209e-08,-60.4273
141.85099840000112,-9.323909e-08,-60.42731
142.52243180000005,-9.32387e-08,-60.42729
143.16874110000026,-9.323723e-08,-60.42727
143.8244491000005,-9.323673e-08,-60.42728
144.47386140000162,-9.323686e-08,-60.42723
145.12438070000098,-9.323516e-08,-60.42727
145.79672879999998,-9.323221e-08,-60.42724
146.46457250000094,-9.323161e-08,-60.42725
147.11123470000166,-9.323237e-08,-60.42728
147.76907420000134,-9.323119e-08,-60.4273
148.4378714000013,-9.323053e-08,-60.42731
149.1071279000007,-9.322867e-08,-60.42737
149.76070250000157,-9.322802e-08,-60.42733
150.40530990000116,-9.322732e-08,-60.42736
151.04748500000096,-9.326678e-08,-60.42732
151.69379200000003,-9.325423e-08,-60.42731
152.33802110000033,-9.322693e-08,-60.42724
152.98132860000078,-9.321956e-08,-60.42729
153.64011680000112,-9.458987e-08,-60.42734
154.2910305000005,-9.430035e-08,-60.42728
154.96074490000137,-9.414316e-08,-60.42723
155.62750330000017,-9.408401e-08,-60.42728
156.3078854000014,-9.404523e-08,-60.42734
156.95881140000165,-9.401956e-08,-60.42725
157.61579080000047,-9.400841e-08,-60.42735
158.2758939000014,-9.398376e-08,-60.42735
158.93136330000016,-9.396999e-08,-60.42725
159.59068819999993,-9.395226e-08,-60.42728
160.25423950000004,-9.394214e-08,-60.42729
160.91384300000027,-9.393892e-08,-60.42738
161.57440240000142,-9.391935e-08,-60.42735
162.23533580000003,-9.391056e-08,-60.42746
162.90126280000004,-9.390428e-08,-60.42745
163.57657500000096,-9.390422e-08,-60.42743
164.2531826000013,-9.388509e-08,-60.42733
164.94718880000073,-9.389058e-08,-60.42734
165.6130114000007,-9.387704e-08,-60.42729
166.2789414000017,-9.387656e-08,-60.42725
166.94260480000048,-9.386876e-08,-60.42737
167.60675980000087,-9.386411e-08,-60.4273
168.27730470000097,-9.385376e-08,-60.42726
168.9460392000001,-9.384396e-08,-60.42727
169.61666760000116,-9.383238e-08,-60.42733
170.31182900000022,-9.383839e-08,-60.42726
171.00528000000122,-9.382742e-08,-60.42724
171.67455930000142,-9.382407e-08,-60.42731
172.34362320000037,-9.382099e-08,-60.42727
173.0352913000006,-9.381043e-08,-60.42729
173.7107833000009,-9.381179e-08,-60.42726
174.38026160000118,-9.380754e-08,-60.42727
175.05957130000024,-9.380266e-08,-60.42731
175.75243460000092,-9.378754e-08,-60.42729
176.43513970000095,-9.379622e-08,-60.42728
177.10780550000163,-9.378629e-08,-60.42729
177.7812556000008,-9.378183e-08,-60.42728
178.45438510000167,-9.378741e-08,-60.4273
179.12985650000155,-9.377352e-08,-60.42726
179.81047880000006,-9.377405e-08,-60.4273
180.49269110000023,-9.376554e-08,-60.42728
181.18511590000162,-9.376883e-08,-60.4272
181.86093110000002,-9.376496e-08,-60.42726
182.54443170000013,-9.37591e-08,-60.42721
183.23553260000153,-9.374685e-08,-60.42727
183.91841320000094,-9.261404e-08,-60.42725
184.60213440000007,-9.285746e-08,-60.42712
185.29351040000074,-9.29259e-08,-60.42715
185.9753154000009,-9.296264e-08,-60.4272
186.6613199000003,-9.298239e-08,-60.42721
187.3484270000008,-9.299883e-08,-60.42724
188.03850280000006,-9.301175e-08,-60.42728
188.722627000001,-9.302018e-08,-60.42725
189.4130778000017,-9.302604e-08,-60.42723
190.10416250000162,-9.303399e-08,-60.42727
190.79575410000143,-9.303826e-08,-60.42724
191.48968090000017,-9.304257e-08,-60.42727
192.18326720000005,-9.304578e-08,-60.42728
192.87518780000028,-9.30476e-08,-60.42724
193.57961280000018,-9.304915e-08,-60.42726
194.27529800000048,-9.305227e-08,-60.4273
194.97828150000169,-9.30531e-08,-60.42711
195.67576910000025,-9.305394e-08,-60.42719
196.39885370000047,-9.305659e-08,-60.42724
197.11853840000003,-9.305813e-08,-60.42712
197.84409770000093,-9.305797e-08,-60.42717
198.54813950000062,-9.305896e-08,-60.42712
199.2741186000003,-9.306013e-08,-60.42718
199.98483020000094,-9.306061e-08,-60.42717
200.6944992000008,-9.305928e-08,-60.42715
201.3992532000011,-9.305955e-08,-60.42716
202.10725380000076,-9.306083e-08,-60.42717
202.81220170000051,-9.306113e-08,-60.42718
203.53175890000057,-9.306044e-08,-60.42715
204.24017660000027,-9.306124e-08,-60.42711
204.94847430000118,-9.305976e-08,-60.42706
205.6452569000012,-9.305956e-08,-60.42719
206.34758200000033,-9.305995e-08,-60.4271
207.06714290000127,-9.306047e-08,-60.42717
207.7725302000017,-9.306032e-08,-60.42715
208.4777165000014,-9.305923e-08,-60.42712
209.21058390000144,-9.305973e-08,-60.42712
209.9110115000003,-9.305795e-08,-60.4271
210.61317170000075,-9.309227e-08,-60.4271
211.3211323000014,-9.306199e-08,-60.42705
212.025685300001,-9.307461e-08,-60.42704
212.7402097000013,-9.305821e-08,-60.42706
213.4519166000009,-9.365215e-08,-60.42704
214.1601182000013,-9.451811e-08,-60.42703
214.86535860000004,-9.432426e-08,-60.42697
215.57901370000036,-9.423693e-08,-60.42702
216.29216500000075,-9.418569e-08,-60.42694
217.0005981000013,-9.413582e-08,-60.42705
217.71380970000064,-9.411374e-08,-60.42702
218.44371090000095,-9.408517e-08,-60.42704
219.16115910000008,-9.407203e-08,-60.42706
219.87432750000153,-9.405262e-08,-60.42703
220.58810820000144,-9.404033e-08,-60.42697
221.30848160000096,-9.401511e-08,-60.42693
222.0246315000004,-9.401298e-08,-60.42694
222.74371900000006,-9.400035e-08,-60.427
223.45845460000055,-9.399242e-08,-60.42699
224.18048340000132,-9.397602e-08,-60.427
224.90168910000102,-9.398045e-08,-60.42699
225.61649670000043,-9.39579e-08,-60.42689
226.34123660000114,-9.39495e-08,-60.42702
227.06899040000098,-9.394392e-08,-60.42693
227.8029064000002,-9.3942e-08,-60.42693
228.53921840000112,-9.393181e-08,-60.42693
229.26935380000032,-9.392044e-08,-60.42692
229.9975114000008,-9.391758e-08,-60.42689
230.7266827000003,-9.39019e-08,-60.42694
231.48130800000035,-9.389957e-08,-60.42693
232.21638310000162,-9.388597e-08,-60.42697
232.95119970000087,-9.389865e-08,-60.42693
233.68265260000044,-9.388037e-08,-60.42694
234.4155905000007,-9.387912e-08,-60.42702
235.15185480000036,-9.387023e-08,-60.42694
235.90642760000082,-9.387345e-08,-60.42693
236.64570420000018,-9.386555e-08,-60.42695
237.3803340000013,-9.386078e-08,-60.42692
238.10941850000017,-9.38524e-08,-60.42692
238.84828460000062,-9.383757e-08,-60.42693
239.58723610000015,-9.384057e-08,-60.42713
240.3227902000017,-9.383287e-08,-60.42699
241.23895470000025,-9.382867e-08,-60.42698
242.05243960000007,-9.383207e-08,-60.42696
242.79808050000065,-9.381682e-08,-60.42695
243.54679700000088,-9.381377e-08,-60.42693
244.3169813000004,-9.25832e-08,-60.4269
245.0680650000013,-9.27068e-08,-60.42693
245.8360857000007,-9.276686e-08,-60.4269
246.59418110000115,-9.280202e-08,-60.42694
247.35911520000082,-9.282889e-08,-60.42691
248.11384970000108,-9.284423e-08,-60.42694
248.8750884000001,-9.286086e-08,-60.42693
249.63210310000068,-9.287004e-08,-60.42697
250.39747700000044,-9.28779e-08,-60.42691
251.16519810000136,-9.288608e-08,-60.4268
251.9261486000014,-9.289317e-08,-60.4268
252.69052530000044,-9.289695e-08,-60.42677
253.4440738000012,-9.290249e-08,-60.42673
254.20733870000004,-9.29059e-08,-60.42683
254.97515560000102,-9.290918e-08,-60.42682
255.75010830000065,-9.291062e-08,-60.42679
256.5604147000013,-9.291566e-08,-60.42662
257.3414509000013,-9.291816e-08,-60.42676
258.1197157000006,-9.291968e-08,-60.42678
258.8902966000005,-9.292116e-08,-60.42674
259.6488274000003,-9.29219e-08,-60.42672
260.42767390000154,-9.292548e-08,-60.42677
261.19763440000133,-9.292459e-08,-60.42677
261.97353660000044,-9.292717e-08,-60.42672
262.74007190000157,-9.29293e-08,-60.42675
263.5186429000005,-9.292841e-08,-60.42681
264.30235790000006,-9.292922e-08,-60.4267
265.07775820000097,-9.293062e-08,-60.42669
265.8583228000007,-9.293277e-08,-60.42674
266.6288190000014,-9.293152e-08,-60.42669
267.4101902000002,-9.293372e-08,-60.42666
268.18543910000153,-9.293145e-08,-60.42663
268.95832450000125,-9.293433e-08,-60.42659
269.7394400000012,-9.293455e-08,-60.42657
270.5337118000007,-9.293359e-08,-60.42662
271.3166929000017,-9.293979e-08,-60.42662
272.09031460000006,-9.297376e-08,-60.42657
272.8685032000012,-9.293515e-08,-60.42656
273.64822840000124,-9.335879e-08,-60.42663
274.44290440000077,-9.470048e-08,-60.42659
275.2348608000011,-9.444921e-08,-60.4266
276.02099100000123,-9.433576e-08,-60.42656
276.8147536000015,-9.427571e-08,-60.42661
277.6006086000016,-9.422482e-08,-60.42663
278.3770878000014,-9.418245e-08,-60.42657
279.1575608000003,-9.41506e-08,-60.42657
279.9294172000009,-9.413129e-08,-60.42652
280.7321993000005,-9.412167e-08,-60.42651
281.5113377000016,-9.408138e-08,-60.42657
282.3089880000007,-9.408512e-08,-60.42647
283.10164820000136,-9.407002e-08,-60.42649
283.88619950000066,-9.403831e-08,-60.42649
284.68928400000004,-9.403051e-08,-60.42649
285.4678057000001,-9.403239e-08,-60.42655
286.25469500000145,-9.400704e-08,-60.42645
