Time (s),Current (A),Voltage (V)
0.7382101000002876,7.144926e-08,0.4990308
1.1799472000002424,7.096274e-08,0.4990317
1.6865629999992962,7.156054e-08,0.4990313
2.189304199999242,7.231277e-08,0.4990312
2.6908120999996754,7.306132e-08,0.4990308
3.203684800000701,7.378483e-08,0.4990306
3.718546399999468,7.448791e-08,0.4990306
4.233581599999525,7.516901e-08,0.4990308
4.749765500000649,7.582175e-08,0.4990306
5.2647066000008635,7.642678e-08,0.4990306
5.765686900000219,7.698618e-08,0.4990307
6.268887500000346,7.750251e-08,0.4990314
6.784434799999872,7.804294e-08,0.4990313
7.298777100000734,7.85845e-08,0.4990315
7.8036265000009735,7.90516e-08,0.4990301
8.306459400000676,7.950516e-08,0.4990299
8.810497599999508,7.995735e-08,0.4990301
9.31507910000073,8.035563e-08,0.4990311
9.816547200000059,8.075521e-08,0.4990304
10.331219499999861,8.10909e-08,0.4990306
10.845995600000606,8.146439e-08,0.4990308
11.361083199999484,8.184028e-08,0.4990309
11.86308420000023,8.21528e-08,0.4990306
12.366675499999474,8.248776e-08,0.4990302
12.880154200000106,8.282365e-08,0.4990309
13.383287700000437,8.316093e-08,0.4990304
13.887024600000586,8.347743e-08,0.4990308
14.388920100000178,8.379474e-08,0.4990302
14.893749500000922,8.407677e-08,0.4990303
15.396180699999604,8.437478e-08,0.4990297
15.901004600000306,8.468628e-08,0.4990303
16.403821800000514,8.49777e-08,0.4990304
16.906994900000427,8.528246e-08,0.4990306
17.411211799999364,8.556511e-08,0.4990309
17.913310100000672,8.584871e-08,0.4990296
18.416260500000135,8.610723e-08,0.4990307
18.921361900000193,8.638217e-08,0.4990303
19.42527490000066,8.661786e-08,0.4990308
19.94056400000045,8.684901e-08,0.4990309
20.4420183000002,8.707762e-08,0.499031
20.947457100000975,8.729597e-08,0.4990316
21.44991040000059,8.752689e-08,0.4990311
21.953737300000284,8.777422e-08,0.4990308
22.45477790000041,8.800946e-08,0.4990312
22.968555699999342,8.821495e-08,0.4990314
23.484071299999414,8.845182e-08,0.4990316
23.999358200000643,8.867296e-08,0.4990312
24.499945199999274,8.890414e-08,0.4990308
25.01371300000028,8.911919e-08,0.4990304
25.519168299999365,8.933252e-08,0.4990307
26.026007099999333,8.953469e-08,0.4990304
26.530121300000246,8.973416e-08,0.4990303
27.045608399999765,8.990274e-08,0.4990303
27.56021900000087,9.008701e-08,0.4990304
28.061658000000534,9.025887e-08,0.4990304
28.57593789999919,9.043531e-08,0.4990309
29.077556399999594,9.061712e-08,0.4990301
29.578512100000808,9.078362e-08,0.4990309
30.1086006000005,9.094357e-08,0.4990312
30.610384699999486,9.112203e-08,0.4990313
31.110821399999622,9.126961e-08,0.4990303
31.626964099999896,9.139583e-08,0.4990306
32.13413550000041,9.154728e-08,0.499031
32.6372451999996,9.171688e-08,0.4990318
33.13938690000032,9.187931e-08,0.4990311
33.64361590000044,9.198593e-08,0.4990308
34.14640060000056,9.212149e-08,0.4990313
34.65987330000098,9.225832e-08,0.4990305
35.17524129999947,9.239485e-08,0.4990308
35.67858960000012,9.252822e-08,0.4990308
36.17887929999961,9.267512e-08,0.4990306
36.69375039999977,9.280905e-08,0.4990304
37.198034999999436,9.292567e-08,0.4990308
37.71078529999977,9.302065e-08,0.4990309
38.21271970000089,9.315053e-08,0.4990315
38.727828999999474,9.32915e-08,0.4990316
39.230677300000025,9.343359e-08,0.4990312
39.74578680000013,9.355509e-08,0.4990314
40.248558299999786,9.367426e-08,0.4990314
40.76281480000034,9.376576e-08,0.4990316
41.27655600000071,9.387321e-08,0.4990312
41.788539400000445,9.39739e-08,0.499031
42.30486960000053,9.409742e-08,0.4990314
42.80536890000076,9.420955e-08,0.4990311
43.32351650000055,9.42954e-08,0.4990312
43.822927100000015,9.435354e-08,0.4990311
44.32970329999989,9.447643e-08,0.4990312
44.83156980000058,9.456943e-08,0.4990314
45.34481009999945,9.468899e-08,0.4990308
45.84691440000097,9.480775e-08,0.499031
46.35454639999989,9.490323e-08,0.4990316
46.862328200000775,9.500729e-08,0.4990309
47.36750559999928,9.511309e-08,0.4990307
47.8704570000009,9.521244e-08,0.4990307
48.37395629999992,9.528679e-08,0.4990316
48.87936660000014,9.536083e-08,0.4990308
49.39383740000085,9.543569e-08,0.499031
49.89859780000006,9.554498e-08,0.4990306
50.40486469999996,9.564591e-08,0.4990302
50.91142000000036,9.57486e-08,0.4990308
51.41629160000048,9.583668e-08,0.4990305
51.91852429999926,9.592445e-08,0.499031
52.42218639999919,9.602289e-08,0.4990298
52.93857940000089,9.609731e-08,0.4990306
53.451581299999816,9.62022e-08,0.4990306
53.95479660000092,9.628464e-08,0.4990306
54.45736039999974,9.636621e-08,0.4990302
54.95980530000088,9.644594e-08,0.4990302
55.46360830000049,9.652806e-08,0.4990305
55.97151080000003,9.654496e-08,0.4990309
56.47635640000044,9.66052e-08,0.4990301
56.99086890000035,9.668567e-08,0.4990299
57.492215500000384,9.678602e-08,0.4990312
57.99407319999955,9.687328e-08,0.4990303
58.49623109999993,9.691069e-08,0.4990303
58.99848750000092,9.695443e-08,0.4990301
59.5017325000008,9.698486e-08,0.4990305
60.01390050000009,9.708177e-08,0.4990304
60.517120200000136,9.686864e-08,0.4990304
61.022434300000896,9.663142e-08,0.4990297
62.01035690000026,2.623161e-06,0.4990312
62.512447000000975,2.912198e-06,0.4990304
63.016768699999375,3.147429e-06,0.4990306
63.524109600000884,3.367991e-06,0.4990311
64.03061949999937,3.567351e-06,0.4990306
64.53998580000007,3.750373e-06,0.4990306
65.04430049999974,3.92179e-06,0.4990306
65.54947209999955,4.093137e-06,0.4990312
66.05593079999926,4.243076e-06,0.4990319
66.55983360000027,4.392779e-06,0.4990307
67.06826960000035,4.534507e-06,0.4990302
67.58095800000046,4.669727e-06,0.4990305
68.09197870000025,4.797338e-06,0.4990304
68.6049210000001,4.921073e-06,0.4990308
69.1212159000006,5.039352e-06,0.4990312
69.63473460000023,5.147218e-06,0.499031
70.16912419999971,5.256538e-06,0.499031
70.69947470000079,5.358285e-06,0.4990305
71.21434810000028,5.450278e-06,0.4990308
71.73267579999992,5.535941e-06,0.4990301
72.24768609999956,5.622795e-06,0.4990301
72.76569759999984,5.702307e-06,0.4990299
73.28250590000061,5.775632e-06,0.4990301
73.81956770000033,5.851237e-06,0.4990302
74.35482919999959,5.911977e-06,0.4990304
74.89079590000074,5.97693e-06,0.4990304
75.41888859999926,6.037959e-06,0.4990301
75.94913850000012,6.091203e-06,0.4990292
76.47553089999928,6.14549e-06,0.499029
77.00170020000041,6.1947e-06,0.4990302
77.52804300000025,6.235498e-06,0.4990304
78.05769119999968,6.27757e-06,0.4990295
78.58837549999953,6.322423e-06,0.4990302
79.12593190000007,6.362789e-06,0.4990295
79.66093510000064,6.392184e-06,0.49903
80.18867040000077,6.427669e-06,0.4990304
80.74253090000093,6.455226e-06,0.4990295
81.27856729999985,6.482736e-06,0.4990304
81.81289900000047,6.509855e-06,0.4990301
82.37829509999938,6.533482e-06,0.4990301
82.91057030000047,6.552026e-06,0.4990301
83.4561193999998,6.577737e-06,0.4990291
83.9806367000001,6.597599e-06,0.4990294
84.51914899999974,6.610917e-06,0.4990298
85.04926049999995,6.62684e-06,0.4990303
85.57367599999998,6.640028e-06,0.4990299
86.11562389999926,6.655418e-06,0.4990304
86.64656690000083,6.665846e-06,0.4990304
87.1803787000008,6.675355e-06,0.4990304
87.72901470000033,6.685512e-06,0.4990293
88.27103759999954,6.69362e-06,0.4990296
88.81538089999958,6.706601e-06,0.499031
89.35474149999936,6.711423e-06,0.49903
89.89082109999981,6.714179e-06,0.4990304
90.4418196000006,6.72053e-06,0.4990312
90.9811936999995,6.724955e-06,0.4990305
91.5231961999998,6.487553e-06,0.4990301
92.06782310000017,1.112776e-06,0.4990293
92.87555389999943,7.012554e-07,0.4990308
93.42152800000076,5.638587e-07,0.4990306
94.00917110000046,4.648453e-07,0.4990307
94.65794029999961,3.881436e-07,0.4990307
95.21657699999923,3.399751e-07,0.4990299
95.77628929999992,3.008817e-07,0.4990309
96.32668550000017,2.666906e-07,0.4990308
96.88455529999919,2.377018e-07,0.4990307
97.52902619999986,2.161582e-07,0.4990301
98.07639630000085,2.033828e-07,0.4990301
98.62491170000067,1.930574e-07,0.4990299
99.17125409999971,1.84741e-07,0.4990306
99.72368450000067,1.782117e-07,0.4990297
100.27942369999982,1.739076e-07,0.4990304
100.82986549999987,1.709993e-07,0.4990302
101.38699300000007,1.683733e-07,0.4990304
101.94220420000056,1.660754e-07,0.4990306
102.53201430000081,1.638825e-07,0.4990319
103.0832061000001,1.619577e-07,0.4990305
103.64193300000079,1.602115e-07,0.4990311
104.22190489999957,1.585561e-07,0.499032
104.8111031999997,1.57005e-07,0.4990308
105.4138710999996,1.554752e-07,0.4990306
106.00078030000077,1.54165e-07,0.4990305
106.56599610000012,1.529659e-07,0.4990303
107.12723519999963,1.51836e-07,0.499031
107.6957536000009,1.507141e-07,0.4990306
108.26119130000006,1.497724e-07,0.4990313
108.81764979999934,1.488875e-07,0.4990308
109.38211860000047,1.480062e-07,0.4990312
109.94832230000065,1.471755e-07,0.4990316
110.51010640000095,1.463352e-07,0.4990314
111.07456509999975,1.455819e-07,0.4990308
111.64512450000075,1.448383e-07,0.4990306
112.23216289999982,1.441132e-07,0.4990296
112.79673139999977,1.434199e-07,0.4990292
113.36272479999934,1.427811e-07,0.4990305
113.93802440000036,1.42191e-07,0.4990299
114.5164003000009,1.416232e-07,0.4990308
115.09284760000082,1.410684e-07,0.4990299
115.67606499999965,1.405467e-07,0.4990295
116.24993100000029,1.400379e-07,0.4990295
116.83111250000002,1.395092e-07,0.4990297
117.4237819000009,1.390233e-07,0.4990297
118.01999930000056,1.385271e-07,0.4990301
118.60189360000004,1.380813e-07,0.4990304
119.1851614999996,1.376204e-07,0.4990298
119.7646433000009,1.372095e-07,0.4990297
120.3621017000005,1.368084e-07,0.4990305
120.95948950000093,1.363795e-07,0.4990292
121.54163100000005,1.36003e-07,0.4990293
122.1494715000008,1.356601e-07,0.4990291
122.74250749999919,1.353231e-07,0.49903
123.32859570000073,1.349893e-07,0.4990295
123.93200740000066,1.346645e-07,0.4990299
124.52800890000071,1.343175e-07,0.4990295
125.11552549999942,1.339977e-07,0.4990303
125.7095418000008,1.336602e-07,0.4990301
126.29729729999963,1.333942e-07,0.4990303
126.90545080000084,1.330588e-07,0.4990295
127.49370839999938,1.327885e-07,0.4990297
128.1036781999992,1.325063e-07,0.4990302
128.69517599999926,1.322484e-07,0.4990301
129.28525509999963,1.319746e-07,0.4990306
129.87958660000004,1.317326e-07,0.4990299
130.4819609999995,1.314954e-07,0.4990302
131.08051010000054,1.312506e-07,0.4990298
131.67143840000062,1.310217e-07,0.4990301
132.2662633,1.307929e-07,0.4990308
132.92952010000045,1.305945e-07,0.4990303
133.55079149999983,1.303615e-07,0.4990302
134.14788090000002,1.301232e-07,0.4990306
134.7608041000003,1.29951e-07,0.4990299
135.37941300000057,1.297465e-07,0.4990296
135.99204230000032,1.295817e-07,0.4990304
136.6019713000005,1.294165e-07,0.4990298
137.22339160000047,1.292011e-07,0.4990295
137.84012729999995,1.290314e-07,0.4990295
138.44583059999968,1.288697e-07,0.4990301
139.0523162999998,1.287146e-07,0.4990301
139.6643065999997,1.285705e-07,0.4990301
140.27794730000096,1.283999e-07,0.4990299
140.90541200000007,1.282104e-07,0.49903
141.5178192000003,1.280329e-07,0.4990298
142.13249039999937,1.279251e-07,0.4990304
142.76836569999978,1.277621e-07,0.4990292
143.38326190000043,1.276246e-07,0.4990301
144.0047355000006,1.274673e-07,0.4990301
144.62179149999974,1.273094e-07,0.4990296
145.23066199999994,1.27176e-07,0.4990301
145.9023242000003,1.270653e-07,0.4990302
146.6036196999994,1.269396e-07,0.4990301
147.25072569999975,1.267513e-07,0.4990299
147.87354650000088,1.265951e-07,0.4990297
148.49783539999953,1.264913e-07,0.4990299
149.1196488000005,1.263886e-07,0.499031
149.7624868999992,1.262945e-07,0.4990306
