Time (s),Current (A),Voltage (V)
0.3404547999998613,6.079335e-07,9.980626
0.845523800000592,6.965369e-07,9.980626
1.346432600001208,7.667891e-07,9.980635
1.8495577000012418,8.259426e-07,9.980621
2.3519038000013097,8.761415e-07,9.98062
2.8535917999997764,9.19866e-07,9.980611
3.3674913000013476,9.600401e-07,9.980632
3.8817453000010573,9.958785e-07,9.980628
4.397636200001216,1.028698e-06,9.980637
5.190853600000992,1.067992e-06,9.980623
5.6174666000006255,1.091386e-06,9.980638
6.128579400001399,1.115078e-06,9.980636
6.631274800000028,1.135564e-06,9.980623
7.131356300000334,1.154469e-06,9.980623
7.635410800001409,1.172365e-06,9.980633
8.151770300000862,1.188147e-06,9.980632
8.659479800000554,1.202846e-06,9.980622
9.175663200001509,1.214765e-06,9.98062
9.689956100000927,1.226635e-06,9.980639
10.19228590000057,1.237183e-06,9.980623
10.708933900001284,1.247662e-06,9.980623
11.209956000000602,1.256908e-06,9.980624
11.714624700000059,1.265629e-06,9.980636
12.21631140000136,1.272406e-06,9.980627
12.72074910000083,1.280765e-06,9.980639
13.223468500000308,1.287256e-06,9.980623
13.725807200000418,1.295022e-06,9.980631
14.229932300000655,1.300036e-06,9.980621
14.736559800001487,1.306944e-06,9.980629
15.237669400001323,1.310787e-06,9.980619
15.74137359999986,1.314613e-06,9.980623
16.24381050000011,1.317393e-06,9.980624
16.74888550000105,1.322087e-06,9.980627
17.25177630000144,1.325222e-06,9.980631
17.75279320000118,1.327861e-06,9.980622
18.253395000001547,1.330007e-06,9.980631
18.75608370000009,1.331539e-06,9.980628
19.261496400000397,1.332465e-06,9.980623
19.776498700000957,1.332765e-06,9.980618
20.281292499999836,1.335621e-06,9.980625
20.783598500000153,1.337342e-06,9.980633
21.28644400000121,1.338916e-06,9.980638
21.789624000000913,1.340101e-06,9.980635
22.298397399999885,1.340594e-06,9.980633
22.820908800000325,1.341313e-06,9.980629
23.324048600001333,1.343172e-06,9.980631
23.839454200000546,1.344245e-06,9.980623
24.341121500001464,1.345451e-06,9.980644
24.854615700000068,1.346025e-06,9.980638
25.371213300000818,1.3467e-06,9.980628
25.872977200000605,1.345947e-06,9.980641
26.376193000000058,1.345309e-06,9.980639
26.876021000000037,1.345378e-06,9.980635
27.39154680000138,1.345343e-06,9.980638
27.892139800000223,1.344263e-06,9.980635
28.395747100001245,1.344621e-06,9.980628
28.897989300001427,1.343482e-06,9.980637
29.39848080000047,1.343659e-06,9.980638
29.899843600000167,1.342593e-06,9.980638
30.41556870000022,1.343654e-06,9.980632
30.920690500001,1.343744e-06,9.98064
31.42494380000062,1.341449e-06,9.980632
31.92849220000062,1.338351e-06,9.980618
32.44274949999999,1.336227e-06,9.980627
32.957447000000684,1.337023e-06,9.980639
33.460237600000255,1.336104e-06,9.980639
33.974699899999905,1.334982e-06,9.980629
34.47453099999984,1.334081e-06,9.980635
34.98993359999986,1.333066e-06,9.980619
35.492305900001156,1.3311e-06,9.980633
35.99450340000112,1.329379e-06,9.980632
36.49916480000138,1.328395e-06,9.980617
37.000355500000296,1.327298e-06,9.980638
37.50338220000049,1.327588e-06,9.980638
38.01868000000104,1.327067e-06,9.980623
38.52325920000112,1.326886e-06,9.98063
39.02983510000013,1.326331e-06,9.98063
39.534683800000494,1.325444e-06,9.980628
40.03920079999989,1.32314e-06,9.980635
40.54345270000158,1.32274e-06,9.980624
41.04562140000053,1.320762e-06,9.980623
41.54891130000033,1.320096e-06,9.980626
42.04978940000001,1.317775e-06,9.980621
42.54995539999982,1.316807e-06,9.980634
43.051631300000736,1.315119e-06,9.980631
43.565546700001505,1.313611e-06,9.980623
44.07955970000148,1.312136e-06,9.980631
44.5824947000001,1.311508e-06,9.980629
45.09714520000125,1.310171e-06,9.980623
45.5991152000006,1.309022e-06,9.980622
46.10095510000065,1.307805e-06,9.980624
46.603781900001195,1.306008e-06,9.980615
47.11074800000097,1.304674e-06,9.980617
47.62601590000122,1.303687e-06,9.98063
48.12783330000093,1.30219e-06,9.980618
48.630035100000896,1.300511e-06,9.980636
49.14520320000156,1.299015e-06,9.980627
49.64617450000151,1.296992e-06,9.980614
50.14740470000106,1.295408e-06,9.980631
50.65096100000119,1.293924e-06,9.980632
51.157754800000475,1.292589e-06,9.980629
51.659947199999806,1.290493e-06,9.980628
52.16146850000041,1.289846e-06,9.980631
52.67504060000101,1.287562e-06,9.980628
53.18873110000095,1.285779e-06,9.980632
53.689606200001435,1.284749e-06,9.980634
54.20215660000031,1.283201e-06,9.980631
54.70422140000119,1.281639e-06,9.980609
55.21009520000007,1.279675e-06,9.980625
55.7171242000004,1.278026e-06,9.980631
56.21874430000025,1.275871e-06,9.980624
56.72156350000114,1.272852e-06,9.980625
57.223934000001464,1.271645e-06,9.980626
57.726955400001316,1.269519e-06,9.980635
58.228062000000136,1.267737e-06,9.980635
58.73502660000122,1.265172e-06,9.980623
59.23711970000113,1.261634e-06,9.980629
59.74121610000111,1.258685e-06,9.980632
60.24200860000019,1.255977e-06,9.980636
61.029796500000884,5.75929e-05,9.980612
61.529426500001136,8.374476e-05,9.980614
62.04150630000004,0.0001013686,9.980623
62.583002000001215,0.0001014706,9.980618
63.12770920000003,9.516175e-05,9.980628
63.66654430000017,9.136594e-05,9.980621
64.171770500001,8.926905e-05,9.980616
64.67839280000044,9.009476e-05,9.980617
65.19232290000036,9.138884e-05,9.980616
65.69291190000149,9.073292e-05,9.980615
66.21139750000111,8.918242e-05,9.980625
66.72587770000064,8.856775e-05,9.980628
67.23217130000012,8.896473e-05,9.980623
67.75784190000013,8.937679e-05,9.980622
68.27216910000061,8.881509e-05,9.980618
68.79003770000054,8.812408e-05,9.980617
69.31013130000065,8.784511e-05,9.980623
69.82469360000141,8.790144e-05,9.980617
70.3394016000002,8.797395e-05,9.980623
70.85051000000021,8.757991e-05,9.980631
71.3622503000006,8.724436e-05,9.980634
71.88062690000152,8.710251e-05,9.980617
72.40972630000033,8.702566e-05,9.980622
72.9285069000016,8.671906e-05,9.980623
73.45214940000005,8.646691e-05,9.980621
73.97526290000133,8.651149e-05,9.980634
74.4949230000002,8.659985e-05,9.980631
75.01728920000096,8.650787e-05,9.98063
75.54001120000066,8.622846e-05,9.980622
76.07526430000144,8.606913e-05,9.980623
76.59717249999994,8.593058e-05,9.980627
77.12991080000029,8.577771e-05,9.980624
77.65720760000113,8.573494e-05,9.980609
78.20229500000096,8.580738e-05,9.980625
78.73414560000128,8.563435e-05,9.98063
79.26694450000105,8.555732e-05,9.980627
79.79645260000143,8.559418e-05,9.980616
80.32387240000025,8.548253e-05,9.980618
80.85601000000133,8.513645e-05,9.980618
81.39442659999986,8.496997e-05,9.98062
81.92806000000019,8.490017e-05,9.980617
82.47282140000061,8.475853e-05,9.980626
83.00359280000157,8.466425e-05,9.980629
83.530369600001,8.450451e-05,9.980624
84.05571070000042,8.444302e-05,9.980608
84.58613340000011,8.418637e-05,9.980625
85.11684160000004,8.42486e-05,9.980623
85.64504790000137,8.420631e-05,9.980611
86.1992750999998,8.411207e-05,9.980629
86.73430310000003,8.392334e-05,9.980622
87.25867190000099,8.371945e-05,9.980624
87.79436690000148,8.37918e-05,9.980632
88.32540400000107,8.378836e-05,9.980627
88.86231860000044,8.38476e-05,9.980626
89.41121170000042,8.372174e-05,9.980624
89.94771170000058,8.349772e-05,9.980622
90.48907070000132,8.346073e-05,9.980615
91.32815310000115,8.181556e-07,9.980607
91.86413370000082,7.692031e-07,9.980628
92.41149519999999,7.56916e-07,9.980614
92.95707030000085,7.519462e-07,9.980622
93.52926060000027,7.484342e-07,9.980624
94.10403310000038,7.470654e-07,9.980627
94.69183990000056,7.463774e-07,9.980625
95.25990360000105,7.452227e-07,9.980623
95.85277110000061,7.452314e-07,9.980618
96.57009920000019,7.453203e-07,9.980636
97.12230740000086,7.456609e-07,9.980619
97.66971990000093,7.456478e-07,9.980625
98.22742600000129,7.457237e-07,9.980629
98.77519200000097,7.465971e-07,9.980637
99.32547540000087,7.466776e-07,9.980633
99.87283120000029,7.469143e-07,9.980636
100.43198510000002,7.481116e-07,9.980625
100.98733130000073,7.486275e-07,9.980643
101.54178990000037,7.48906e-07,9.980636
102.09657370000059,7.494136e-07,9.980627
102.64754650000032,7.508105e-07,9.980623
103.19976940000015,7.518908e-07,9.980631
103.76581780000015,7.52032e-07,9.980623
104.3593165000002,7.531267e-07,9.980634
104.99525090000134,7.547177e-07,9.980631
105.5713121000008,7.561465e-07,9.980636
106.16878700000052,7.57237e-07,9.98063
106.76719790000061,7.586935e-07,9.980632
107.3547776000014,7.593794e-07,9.980631
107.93418120000024,7.603556e-07,9.980633
108.60689060000004,7.628269e-07,9.980645
109.19690780000019,7.641407e-07,9.980629
109.7731889000006,7.647621e-07,9.980639
110.34505890000037,7.655491e-07,9.980627
110.91245140000137,7.670041e-07,9.980621
111.48347920000015,7.6807e-07,9.980628
112.06231930000104,7.7036e-07,9.980631
112.63378540000122,7.709966e-07,9.980634
113.21145600000091,7.728394e-07,9.98063
113.78952480000044,7.735496e-07,9.980635
114.39509040000121,7.760404e-07,9.980627
115.0001183000004,7.781305e-07,9.980622
115.58132380000097,7.797545e-07,9.98062
116.16192310000042,7.810187e-07,9.980625
116.73603680000087,7.813781e-07,9.980621
117.33122700000058,7.832278e-07,9.980617
117.92498110000088,7.853251e-07,9.980607
118.51474770000095,7.869063e-07,9.980621
119.098252400001,7.876421e-07,9.980631
119.67448540000078,7.883721e-07,9.980627
120.25910460000159,7.895115e-07,9.980631
120.84316560000116,7.915228e-07,9.980633
121.42793770000026,7.929029e-07,9.980618
122.02992770000128,7.944138e-07,9.980636
122.61575660000017,7.96335e-07,9.980632
123.23008630000004,7.985832e-07,9.980638
123.81934510000065,7.994508e-07,9.980621
124.4089397000007,8.006861e-07,9.980634
124.99513740000111,8.022918e-07,9.98062
125.58379700000114,8.034519e-07,9.980631
126.17719600000055,8.04569e-07,9.980643
126.76576860000023,8.06383e-07,9.980634
127.3850395999998,8.082156e-07,9.980635
127.97766950000005,8.094216e-07,9.980628
128.57138570000097,8.104876e-07,9.980634
129.16484010000022,8.116298e-07,9.98064
129.7550336000004,8.129009e-07,9.980639
130.35502710000037,8.150672e-07,9.980631
130.94640990000153,8.146927e-07,9.980638
131.54107860000113,8.1731e-07,9.980634
132.15605219999998,8.180204e-07,9.980633
132.75497750000068,8.196519e-07,9.980633
133.35504540000147,8.208614e-07,9.980635
133.95823070000006,8.231239e-07,9.980633
134.5620755,8.245671e-07,9.980632
135.18216140000004,8.261733e-07,9.980641
135.7899010000001,8.269722e-07,9.980639
136.39350449999984,8.287803e-07,9.98063
136.99951940000028,8.303074e-07,9.980623
137.61005380000097,8.317033e-07,9.980634
138.22228450000148,8.334057e-07,9.980631
138.8293276000004,8.358101e-07,9.980622
139.43664920000083,8.368459e-07,9.980631
140.0749237,8.390087e-07,9.980634
140.68972940000094,8.400559e-07,9.980633
141.3032688000003,8.413454e-07,9.980635
141.90905160000148,8.431753e-07,9.980644
142.52465530000154,8.450749e-07,9.980638
143.1503440000015,8.468875e-07,9.980634
143.76692750000075,8.491181e-07,9.980639
144.38187070000095,8.493377e-07,9.980643
144.99710510000114,8.519127e-07,9.980637
145.61991430000126,8.542819e-07,9.980631
146.24021360000006,8.54547e-07,9.980628
146.86041190000105,8.571516e-07,9.98063
147.4850144000011,8.584696e-07,9.980623
148.11422310000125,8.594957e-07,9.980631
148.73742500000117,8.608948e-07,9.980632
149.36165880000044,8.628903e-07,9.980632
149.99744580000151,8.647662e-07,9.980637
