Time (s),Current (A),Voltage (V)
1.213937999999871,1.797376e-07,1.996057
1.6690499000001182,1.71518e-07,1.996056
2.17763530000002,1.674955e-07,1.996056
2.6918682000000445,1.648613e-07,1.996056
3.206716900000174,1.629217e-07,1.996057
3.719544699999915,1.614668e-07,1.996056
4.222621700000218,1.603203e-07,1.996058
4.738405999999941,1.592517e-07,1.996057
5.239847000000282,1.585213e-07,1.996054
5.755353000000014,1.577538e-07,1.996055
6.259721800000079,1.571702e-07,1.996053
6.763800600000195,1.565428e-07,1.996055
7.265587500000038,1.559228e-07,1.996056
7.768996799999968,1.554757e-07,1.996054
8.282957400000214,1.552377e-07,1.996053
8.78645970000025,1.547955e-07,1.996055
9.288755500000207,1.545234e-07,1.996055
9.792976700000054,1.541642e-07,1.996056
10.295715400000063,1.540662e-07,1.996053
10.798768699999982,1.538576e-07,1.996055
11.313221100000192,1.53738e-07,1.996054
11.828279800000018,1.535277e-07,1.996056
12.329834800000299,1.534927e-07,1.996055
12.846478200000092,1.53359e-07,1.996055
13.360492400000112,1.533465e-07,1.996055
13.862589000000298,1.531927e-07,1.996055
14.364266600000064,1.533184e-07,1.996056
14.879031599999962,1.532849e-07,1.996055
15.39544590000014,1.529703e-07,1.996055
15.908896500000083,1.529121e-07,1.996055
16.409407699999974,1.530099e-07,1.996054
16.92242729999998,1.530737e-07,1.996054
17.422776599999906,1.532456e-07,1.996054
17.937679000000117,1.534743e-07,1.996054
18.440798099999938,1.53942e-07,1.996053
18.95651829999997,1.540629e-07,1.996054
19.47118760000012,1.540712e-07,1.996054
19.98700319999989,1.538704e-07,1.996055
20.50373660000014,1.536809e-07,1.996052
21.01740810000001,1.53577e-07,1.996053
21.51911169999994,1.535081e-07,1.996054
22.03297960000009,1.538134e-07,1.996055
22.544610100000227,1.539912e-07,1.996055
23.05949529999998,1.542449e-07,1.996055
23.574804800000038,1.543608e-07,1.996053
24.077971199999865,1.547178e-07,1.996056
24.580041300000175,1.548403e-07,1.996055
25.08195990000013,1.548526e-07,1.996055
25.58443810000017,1.54718e-07,1.996056
26.08957959999998,1.551751e-07,1.996055
26.59442500000023,1.556512e-07,1.996057
27.096634900000026,1.557997e-07,1.996053
27.597412600000098,1.557649e-07,1.996055
28.11255250000022,1.557991e-07,1.996055
28.617965899999945,1.560119e-07,1.996054
29.12244929999997,1.56311e-07,1.996056
29.62691100000029,1.566173e-07,1.996055
30.128259099999923,1.568978e-07,1.996056
30.642806700000165,1.568717e-07,1.996054
31.144260699999904,1.568984e-07,1.996055
31.659302200000184,1.570082e-07,1.996054
32.16144110000005,1.577915e-07,1.996055
32.67431110000007,1.580842e-07,1.996055
33.175482999999986,1.582624e-07,1.996055
33.689968800000315,1.580889e-07,1.996055
34.194432400000096,1.580398e-07,1.996056
34.69989600000008,1.581808e-07,1.996056
35.20308750000004,1.58725e-07,1.996057
35.702612300000055,1.587053e-07,1.996057
36.20513729999993,1.590356e-07,1.996056
36.719190400000116,1.590164e-07,1.996056
37.22025870000016,1.589713e-07,1.996056
37.72054909999997,1.589903e-07,1.996056
38.22204940000029,1.59183e-07,1.996056
38.72799290000012,1.594234e-07,1.996056
39.23181160000013,1.598025e-07,1.996057
39.736684100000275,1.600589e-07,1.996056
40.23952250000002,1.602327e-07,1.996057
40.74189770000021,1.603286e-07,1.996056
41.24327510000012,1.60417e-07,1.996054
41.74711269999989,1.60521e-07,1.996058
42.258755700000165,1.608188e-07,1.996058
42.760991000000104,1.609487e-07,1.996058
43.2644021000001,1.611391e-07,1.996057
43.77067250000027,1.610574e-07,1.996058
44.28676949999999,1.609058e-07,1.996058
44.78792659999999,1.610865e-07,1.996058
45.29951370000026,1.613893e-07,1.996057
45.80160310000019,1.61848e-07,1.996058
46.30163390000007,1.619763e-07,1.996057
46.80437810000012,1.623126e-07,1.996059
47.3092329000001,1.62455e-07,1.996058
47.81443880000006,1.627362e-07,1.996057
48.316632500000196,1.634061e-07,1.996058
48.8183825000001,1.639603e-07,1.996058
49.320996599999944,1.638172e-07,1.996057
49.822202899999866,1.637179e-07,1.996059
50.32522999999992,1.633847e-07,1.996061
50.83147820000022,1.625663e-07,1.996058
51.3318819000001,1.611313e-07,1.996057
51.838486699999976,1.612957e-07,1.996058
52.3386330000003,1.621004e-07,1.996058
52.8437557000002,1.623464e-07,1.996057
53.34680090000029,1.625272e-07,1.996056
53.84871629999998,1.621947e-07,1.996059
54.34895469999992,1.622295e-07,1.996057
54.85479440000017,1.623879e-07,1.996059
55.358965700000226,1.626759e-07,1.996059
55.86319249999997,1.614503e-07,1.996057
56.37823789999993,1.608899e-07,1.996058
56.87898059999998,1.605705e-07,1.996057
57.3974905,1.609475e-07,1.996058
57.90272730000015,1.617663e-07,1.996059
58.40616069999987,1.615084e-07,1.996057
58.91172379999989,1.598331e-07,1.996059
59.41760740000018,1.592883e-07,1.996059
59.92487019999999,1.595011e-07,1.996058
60.43236680000018,1.597156e-07,1.99606
61.42170560000022,1.709583e-05,1.996058
61.92778410000028,2.098997e-05,1.996058
62.43680029999996,2.437959e-05,1.996058
62.94302280000011,2.744067e-05,1.996057
63.455224700000144,3.02964e-05,1.996059
63.968121599999904,3.290648e-05,1.996057
64.48188230000005,3.539202e-05,1.996058
64.98967220000031,3.766806e-05,1.996059
65.49894429999995,3.985349e-05,1.996057
66.01625360000025,4.189871e-05,1.996056
66.5340798000002,4.390834e-05,1.996057
67.05667119999998,4.586779e-05,1.996058
67.57419440000012,4.768914e-05,1.996057
68.09010669999998,4.942854e-05,1.996058
68.61190889999989,5.113453e-05,1.996058
69.13665960000026,5.279948e-05,1.996059
69.67286990000002,5.439437e-05,1.996057
70.19715780000024,5.59229e-05,1.996058
70.72059399999989,5.738073e-05,1.996057
71.24740509999992,5.87901e-05,1.996057
71.7922195000001,6.018045e-05,1.996057
72.34457680000014,6.154329e-05,1.996056
72.86804639999991,6.283809e-05,1.996058
73.39777730000014,6.408108e-05,1.996056
73.92681369999991,6.527758e-05,1.996057
74.45637459999989,6.646638e-05,1.996057
74.98664970000027,6.758311e-05,1.996058
75.51832590000004,6.866435e-05,1.996058
76.07256210000014,6.979877e-05,1.996059
76.60097270000006,7.085386e-05,1.996058
77.1369878999999,7.186145e-05,1.996057
77.67324559999997,7.290969e-05,1.996058
78.20892860000004,7.391077e-05,1.996058
78.74953129999994,7.48927e-05,1.996057
79.29407470000024,7.578709e-05,1.996057
79.83529410000028,7.673611e-05,1.996057
80.3926550000001,7.767011e-05,1.996059
80.93346870000005,7.856514e-05,1.996056
81.47097770000028,7.944622e-05,1.996057
82.01106990000017,8.029438e-05,1.996058
82.5525918000003,8.11326e-05,1.996056
83.0964626,8.199669e-05,1.996056
83.63052670000025,8.278812e-05,1.996057
84.16492980000021,8.357743e-05,1.996058
84.70127159999993,8.436067e-05,1.996057
85.23963030000004,8.516688e-05,1.996058
85.77611780000007,8.589966e-05,1.996058
86.30679620000001,8.663198e-05,1.996058
86.84476480000012,8.737574e-05,1.996058
87.38349470000003,8.811984e-05,1.996056
87.91720740000028,8.883378e-05,1.996057
88.45671859999993,8.955318e-05,1.996059
88.99799239999993,9.026459e-05,1.99606
89.54108150000002,9.092082e-05,1.996059
90.08814729999995,9.164881e-05,1.996057
90.64617559999988,9.234374e-05,1.996059
91.67386269999997,4.249109e-07,1.996111
92.23533260000022,3.573729e-07,1.996064
92.78383450000001,3.263038e-07,1.996065
93.32902850000028,3.075231e-07,1.996063
93.87773969999989,2.948579e-07,1.996063
94.42889259999993,2.851059e-07,1.996065
94.97808740000028,2.769177e-07,1.996066
95.52874840000004,2.693469e-07,1.996063
96.08432279999988,2.62135e-07,1.996064
96.63590840000006,2.549601e-07,1.996065
97.19408250000015,2.475697e-07,1.996064
97.74732570000015,2.397206e-07,1.996063
98.30637920000026,2.304255e-07,1.996065
98.86590870000009,2.218343e-07,1.996065
99.43962510000028,2.166777e-07,1.996065
100.00104280000005,2.137221e-07,1.996063
100.55878250000023,2.114779e-07,1.996065
101.12915939999993,2.097569e-07,1.996064
101.69576640000014,2.083512e-07,1.996065
102.26180250000016,2.072761e-07,1.996065
102.83721109999988,2.063547e-07,1.996063
103.4195181,2.055871e-07,1.996065
103.98248869999998,2.049534e-07,1.996063
104.54557389999991,2.044646e-07,1.996066
105.11160010000003,2.041165e-07,1.996064
105.67923569999994,2.037773e-07,1.996064
106.25369799999999,2.036193e-07,1.996065
106.8242209,2.033484e-07,1.996065
107.39643440000009,2.031483e-07,1.996065
107.98400179999999,2.030061e-07,1.996065
108.55640270000004,2.028877e-07,1.996064
109.14135450000003,2.028674e-07,1.996066
109.73267280000027,2.026498e-07,1.996066
110.31904840000016,2.026876e-07,1.996066
110.89632260000008,2.026316e-07,1.996065
111.47043340000027,2.026714e-07,1.996065
112.05703100000028,2.02626e-07,1.996065
112.6345897000001,2.025957e-07,1.996066
113.20726400000012,2.025638e-07,1.996065
113.78693620000013,2.026311e-07,1.996065
114.38190209999993,2.027249e-07,1.996066
114.9618958000001,2.027747e-07,1.996066
115.54548160000013,2.028302e-07,1.996066
116.12968709999996,2.028459e-07,1.996066
116.71333890000005,2.029728e-07,1.996067
117.31771320000007,2.03031e-07,1.996065
117.90706690000025,2.031151e-07,1.996063
118.494643,2.032358e-07,1.996065
119.09780320000027,2.032732e-07,1.996067
119.69874699999991,2.033958e-07,1.996066
120.31184269999994,2.034976e-07,1.996065
120.92025520000016,2.03676e-07,1.996066
121.50639799999999,2.037744e-07,1.996066
122.10911510000005,2.038845e-07,1.996067
122.70401290000018,2.03973e-07,1.996065
123.30768790000002,2.041493e-07,1.996067
123.90095819999988,2.042516e-07,1.996068
124.49554080000007,2.043891e-07,1.996067
125.09835090000024,2.045615e-07,1.996065
125.69510739999987,2.04714e-07,1.996067
126.30018340000015,2.04819e-07,1.996067
126.90129830000024,2.04985e-07,1.996066
127.52540700000009,2.051914e-07,1.996066
128.13120190000018,2.052711e-07,1.996066
128.74178299999994,2.053656e-07,1.996067
129.34277090000023,2.055878e-07,1.996066
130.01060910000024,2.057895e-07,1.996066
130.62297669999998,2.060365e-07,1.996063
131.23202930000025,2.062141e-07,1.996068
131.856804,2.066642e-07,1.996068
132.46484959999998,2.07061e-07,1.996068
133.10305879999987,2.073963e-07,1.996065
133.71722090000003,2.075702e-07,1.996066
134.32454129999996,2.078969e-07,1.996065
134.93636560000004,2.080849e-07,1.996067
135.5501091000001,2.083294e-07,1.996067
136.1672349999999,2.085207e-07,1.996066
136.78203220000023,2.087374e-07,1.996064
137.4020475000002,2.089203e-07,1.996066
138.02910710000015,2.091719e-07,1.996068
138.64127469999994,2.093034e-07,1.996066
139.2790356999999,2.093981e-07,1.996067
139.9131956000001,2.096157e-07,1.996065
140.57736419999992,2.098389e-07,1.996067
141.2703059999999,2.10126e-07,1.996068
141.91017620000002,2.10343e-07,1.996065
142.5401099999999,2.105997e-07,1.996067
143.1662237999999,2.108624e-07,1.996067
143.7872213999999,2.110415e-07,1.996068
144.4139014000002,2.112611e-07,1.996068
145.03918280000016,2.116154e-07,1.996066
145.6771619000001,2.118453e-07,1.996068
146.3130546000002,2.120923e-07,1.996068
146.93453420000014,2.123018e-07,1.996068
147.56661050000002,2.125712e-07,1.996066
148.20990740000025,2.126561e-07,1.996066
148.83671189999995,2.128828e-07,1.996066
149.47719180000013,2.131215e-07,1.996067
150.1089723,2.133339e-07,1.996067
