Time (s),Current (A),Voltage (V)
0.34213960000033694,5.604824e-07,9.980385
0.8489670000003571,5.713026e-07,9.980392
1.3547438000000511,5.955582e-07,9.98039
1.854931100000158,6.197196e-07,9.980392
2.3610364000001027,6.435107e-07,9.980378
2.8669799000003877,6.657576e-07,9.980392
3.371115800000098,6.874082e-07,9.980388
3.8755495000000337,7.08153e-07,9.980386
4.382591700000376,7.272745e-07,9.980391
4.888305800000126,7.463971e-07,9.980388
5.403373600000123,7.652981e-07,9.98039
5.90455350000002,7.826814e-07,9.980376
6.4126406000000316,7.999325e-07,9.980385
6.915091000000302,8.162389e-07,9.980377
7.418597400000181,8.322078e-07,9.980373
7.920432300000357,8.473713e-07,9.980378
8.424101500000234,8.622573e-07,9.980377
8.939542699999947,8.772876e-07,9.980366
9.441018600000007,8.915186e-07,9.980372
9.948392799999965,9.049384e-07,9.980376
10.462578600000143,9.169984e-07,9.98038
10.964308699999947,9.285362e-07,9.980382
11.479609600000003,9.41835e-07,9.980392
11.98217620000014,9.540965e-07,9.980387
12.484421800000291,9.656436e-07,9.980376
12.988204200000382,9.765577e-07,9.980381
13.49110550000023,9.867489e-07,9.980371
13.994677700000011,9.917392e-07,9.980371
14.499686099999963,1.000653e-06,9.980365
15.002327300000161,1.010332e-06,9.980384
15.505289700000048,1.020113e-06,9.980378
16.009074900000087,1.029327e-06,9.980375
16.50932469999998,1.036816e-06,9.980385
17.01597000000038,1.04476e-06,9.980377
17.808285200000228,1.055744e-06,9.980364
18.255455200000142,1.063021e-06,9.980375
18.75743360000024,1.069475e-06,9.980372
19.259332500000255,1.076194e-06,9.980383
19.76325029999998,1.081698e-06,9.980373
20.26801790000036,1.087938e-06,9.980378
20.768528999999944,1.094383e-06,9.980372
21.272217400000045,1.100252e-06,9.980374
21.78134369999998,1.106046e-06,9.980371
22.281142900000305,1.111347e-06,9.980387
22.78480010000021,1.117521e-06,9.980383
23.2887611000001,1.122851e-06,9.980386
23.791020500000286,1.127992e-06,9.980375
24.298359000000346,1.133163e-06,9.980368
24.80919730000005,1.136817e-06,9.980377
25.30993269999999,1.141898e-06,9.98038
25.8134642,1.145857e-06,9.980374
26.316938700000264,1.151161e-06,9.980364
26.820107400000325,1.155859e-06,9.980368
27.334896200000003,1.161019e-06,9.980372
27.84552040000017,1.165003e-06,9.98037
28.361427300000287,1.169464e-06,9.980365
28.86294100000032,1.173848e-06,9.980368
29.36403730000029,1.177256e-06,9.980371
29.87697160000016,1.180515e-06,9.98037
30.379233300000124,1.184069e-06,9.980382
30.87988859999996,1.189017e-06,9.980382
31.397077600000102,1.192446e-06,9.980375
31.908771400000205,1.195311e-06,9.980374
32.425374300000385,1.198389e-06,9.980386
32.93800370000008,1.202319e-06,9.98038
33.447837100000015,1.20474e-06,9.980387
33.96247489999996,1.206137e-06,9.980389
34.47684509999999,1.209291e-06,9.980375
34.9774268000001,1.211683e-06,9.980387
35.49111000000039,1.213729e-06,9.980387
36.0051682000003,1.215354e-06,9.980389
36.51942390000022,1.218398e-06,9.98039
37.03166170000031,1.221069e-06,9.980382
37.542172700000265,1.222661e-06,9.980375
38.057671700000355,1.222805e-06,9.980376
38.55977770000027,1.225533e-06,9.980379
39.06592360000013,1.228395e-06,9.980366
39.571051600000374,1.23237e-06,9.980373
40.076215200000206,1.232952e-06,9.980368
40.58225420000008,1.23601e-06,9.980374
41.0831903000003,1.239405e-06,9.980362
41.598675300000195,1.243708e-06,9.980371
42.10420810000005,1.246396e-06,9.980378
42.61852470000031,1.249583e-06,9.980368
43.118830000000344,1.251826e-06,9.980377
43.62479210000038,1.255752e-06,9.980377
44.127832800000306,1.257946e-06,9.980374
44.636252700000114,1.259663e-06,9.980379
45.14174110000022,1.260408e-06,9.980368
45.645889400000215,1.263231e-06,9.980371
46.14817889999995,1.266143e-06,9.980359
46.650238700000045,1.267721e-06,9.980368
47.15193390000013,1.270423e-06,9.980371
47.65343500000017,1.271708e-06,9.980371
48.16801960000021,1.273611e-06,9.980363
48.674768100000165,1.274579e-06,9.980374
49.178237699999954,1.275714e-06,9.980363
49.68296820000023,1.277801e-06,9.980365
50.184785000000375,1.280237e-06,9.98038
50.700418300000365,1.282761e-06,9.980376
51.20119360000035,1.285841e-06,9.980371
51.72958110000036,1.288028e-06,9.980376
52.23856690000002,1.289507e-06,9.980371
52.739858899999945,1.290535e-06,9.980365
53.241745600000286,1.291575e-06,9.980357
53.74760970000034,1.293171e-06,9.980369
54.249909800000296,1.295897e-06,9.98037
54.75577620000013,1.296322e-06,9.980373
55.25871320000033,1.298538e-06,9.980356
55.77302140000029,1.300524e-06,9.980362
56.27780670000038,1.302365e-06,9.980363
56.77983660000018,1.304013e-06,9.98036
57.28442930000028,1.305958e-06,9.980363
57.78608239999994,1.307113e-06,9.980362
58.28875280000011,1.308048e-06,9.980364
58.79142219999994,1.308426e-06,9.980378
59.29174000000012,1.299981e-06,9.980363
59.792224499999975,1.29669e-06,9.980352
60.29318790000025,1.296971e-06,9.980374
61.08771250000018,9.573111e-05,9.980381
61.73223810000036,0.0001443478,9.980305
62.105417500000385,0.0001744831,9.980284
62.60666960000026,0.0002132343,9.980269
63.10989270000027,0.0002507197,9.980264
63.61281170000029,0.0002849095,9.980237
64.1137861000002,0.000315645,9.980233
64.61565210000026,0.0003432906,9.980222
65.11989970000013,0.000367795,9.980204
65.6230158000003,0.0003893921,9.980206
66.12753070000008,0.0004082627,9.980207
66.63507260000006,0.0004250431,9.980189
67.13699010000028,0.0004395052,9.980184
67.64000729999998,0.0004520428,9.980184
68.14396940000006,0.0004624856,9.980161
68.65888340000038,0.0004706084,9.980181
69.16038019999996,0.000475897,9.980167
69.66274420000036,0.0004779429,9.980163
70.16700420000006,0.0004776222,9.980172
70.67018250000001,0.0004763324,9.980178
71.18528660000038,0.0004744479,9.980168
71.68979520000039,0.0004731215,9.980178
72.19041990000005,0.0004723576,9.980176
72.69540510000024,0.0004715676,9.98017
73.19904110000016,0.0004705415,9.980167
73.70060290000038,0.0004697613,9.980168
74.20229830000017,0.0004693367,9.980169
74.70756140000003,0.0004692177,9.980181
75.2226657000001,0.0004690941,9.980175
75.72495230000004,0.0004690594,9.98019
76.22642750000023,0.0004684048,9.980181
76.72907900000018,0.0004679898,9.980184
77.24299599999995,0.0004670841,9.980173
77.7466128000001,0.0004666196,9.980175
78.25189480000017,0.0004661536,9.980181
78.7558242,0.0004658139,9.980176
79.26084050000009,0.0004649185,9.980175
79.76527980000037,0.0004641945,9.980189
80.27055940000037,0.0004634393,9.980175
80.77598269999999,0.0004626307,9.980169
81.27957180000021,0.0004618361,9.980174
81.79045270000006,0.0004610498,9.980185
82.3061345000001,0.0004602468,9.980186
82.8198881000003,0.0004591508,9.980183
83.32329170000003,0.0004587875,9.980166
83.82487179999998,0.0004587442,9.980174
84.32627520000005,0.0004592439,9.980171
84.83164950000037,0.000459507,9.980175
85.33546400000023,0.0004598741,9.980184
85.83807879999995,0.0004601734,9.98017
86.34008510000012,0.0004603847,9.980177
86.8462442,0.0004601106,9.980182
87.34814740000002,0.0004599773,9.980183
87.8528867,0.0004600855,9.980177
88.35297609999998,0.00045987,9.980171
88.86872050000011,0.000459872,9.980161
89.36980440000025,0.0004595467,9.980183
89.88406020000002,0.0004598141,9.980178
90.3855136000002,0.0004598209,9.980172
90.89095650000036,0.0004598607,9.980165
91.39580150000029,0.0004596373,9.980177
91.89693609999995,0.0004595669,9.98018
92.39795810000032,0.0004593256,9.980181
93.04972440000029,1.868897e-06,9.980906
93.58916680000038,1.592607e-06,9.98038
94.13412120000021,1.498668e-06,9.980373
94.67989280000029,1.432135e-06,9.98038
95.2298836,1.377545e-06,9.980391
95.77683620000016,1.341565e-06,9.980379
96.32188450000012,1.322668e-06,9.980377
96.87274560000014,1.313322e-06,9.980376
97.43112390000033,1.307821e-06,9.980388
97.9810536,1.303097e-06,9.980379
98.53535740000007,1.301302e-06,9.98036
99.09192380000013,1.299097e-06,9.980376
99.64920380000012,1.296744e-06,9.980363
100.2105244000004,1.298583e-06,9.980371
100.76003990000027,1.302199e-06,9.980377
101.31766280000011,1.302933e-06,9.980375
101.87477650000028,1.304991e-06,9.980382
102.43747810000013,1.304896e-06,9.980371
103.00095510000028,1.303849e-06,9.98038
103.56448560000035,1.30518e-06,9.980375
104.13220440000032,1.306017e-06,9.980374
104.69754590000002,1.308696e-06,9.980379
105.26609690000032,1.309342e-06,9.980376
105.8269849000003,1.317964e-06,9.980381
106.41103229999999,1.31776e-06,9.980377
106.97532390000015,1.317446e-06,9.980374
107.54753030000029,1.318944e-06,9.980377
108.11591720000024,1.32104e-06,9.980378
108.68895310000016,1.321814e-06,9.98037
109.26761310000029,1.32464e-06,9.980364
109.83988970000019,1.332508e-06,9.980363
110.43295290000015,1.336324e-06,9.980359
111.02387540000018,1.338059e-06,9.980373
111.59988470000008,1.342909e-06,9.980371
112.17747970000028,1.345315e-06,9.980369
112.74953100000039,1.346762e-06,9.980366
113.31909600000017,1.347398e-06,9.980371
113.89239410000027,1.350456e-06,9.980353
114.4791121000003,1.353992e-06,9.980369
115.06003770000007,1.354555e-06,9.980365
115.65684740000006,1.357846e-06,9.980377
116.24143240000012,1.362766e-06,9.980373
116.82987360000016,1.365753e-06,9.980368
117.41846990000022,1.365458e-06,9.980367
118.00829220000014,1.3667e-06,9.980351
118.59437800000023,1.370601e-06,9.980371
119.20980069999996,1.375234e-06,9.980371
119.79674479999994,1.378704e-06,9.98038
120.38703280000027,1.380946e-06,9.980371
120.98008770000024,1.380083e-06,9.980359
121.56772320000027,1.382021e-06,9.980379
122.15725999999995,1.383627e-06,9.98037
122.74780830000009,1.385757e-06,9.980367
123.34962080000014,1.387535e-06,9.980372
123.94723520000025,1.389363e-06,9.980387
124.55538300000035,1.389159e-06,9.980368
125.1630897,1.391437e-06,9.980374
125.75781380000035,1.396195e-06,9.980367
126.35030150000011,1.398758e-06,9.980367
126.94949080000015,1.402115e-06,9.980363
127.54535299999998,1.401885e-06,9.980385
128.14469529999997,1.403884e-06,9.980371
128.76252470000009,1.406846e-06,9.980371
129.3651514000003,1.409583e-06,9.980377
129.96643710000035,1.40992e-06,9.98037
130.57107080000014,1.41099e-06,9.980358
131.20989989999998,1.409143e-06,9.980364
131.8137756000001,1.412301e-06,9.980383
132.40987480000013,1.412331e-06,9.98038
133.0127493,1.413243e-06,9.980375
133.64117400000032,1.414156e-06,9.980378
134.25337490000038,1.415166e-06,9.980378
134.86406780000016,1.416697e-06,9.980376
135.47287370000004,1.419663e-06,9.980385
136.11097910000035,1.422783e-06,9.980355
136.72278380000034,1.425966e-06,9.980366
137.33868440000015,1.425734e-06,9.980366
137.95215240000016,1.428029e-06,9.980371
138.56410090000008,1.429418e-06,9.980377
139.1775961000003,1.43008e-06,9.980369
139.79673390000016,1.432572e-06,9.980379
140.41704720000007,1.433895e-06,9.980373
141.04795349999995,1.435303e-06,9.980367
141.6669363000001,1.434748e-06,9.980363
142.28786390000005,1.435205e-06,9.980376
142.90707199999997,1.435519e-06,9.980365
143.52245360000006,1.436557e-06,9.980371
144.14458060000015,1.43522e-06,9.980365
144.7635693000002,1.435654e-06,9.980369
145.38718560000007,1.434339e-06,9.980385
146.01350730000013,1.435504e-06,9.980367
146.6495877000002,1.436901e-06,9.980374
147.27692100000013,1.438202e-06,9.980381
147.8986559,1.439714e-06,9.980396
148.52606390000028,1.443127e-06,9.980381
149.15439540000034,1.44661e-06,9.98038
149.78089590000036,1.44841e-06,9.980376
