Time (s),Current (A),Voltage (V)
0.48938940000016373,8.244331e-07,19.96074
0.9320382000000791,8.69239e-07,19.96075
1.4454881000001478,9.251343e-07,19.96075
1.9485952999998517,9.884453e-07,19.96076
2.741297300000042,1.093979e-06,19.96077
3.167122599999857,1.154042e-06,19.96075
3.67195589999983,1.206408e-06,19.96075
4.174640100000033,1.262445e-06,19.96076
4.6760981000002175,1.32032e-06,19.96075
5.190100799999982,1.363173e-06,19.96075
5.6933140000001,1.400642e-06,19.96076
6.19822750000003,1.46502e-06,19.96076
6.700973099999828,1.511724e-06,19.96073
7.203138599999875,1.556122e-06,19.96075
7.715691800000059,1.598468e-06,19.96075
8.23124659999985,1.642137e-06,19.96076
8.734419800000069,1.683679e-06,19.96075
9.248148799999854,1.725143e-06,19.96075
9.761376100000234,1.76893e-06,19.96075
10.265173899999809,1.800988e-06,19.96075
10.765116600000056,1.825265e-06,19.96075
11.27892010000005,1.849806e-06,19.96076
11.79389540000011,1.884738e-06,19.96073
12.296382099999846,1.936002e-06,19.96076
12.798403899999812,1.967448e-06,19.96075
13.30078739999999,1.996218e-06,19.96075
13.80121730000019,2.025884e-06,19.96074
14.305113899999924,2.054401e-06,19.96075
14.806390000000192,2.080915e-06,19.96074
15.307484299999942,2.104945e-06,19.96074
15.807603900000231,2.133913e-06,19.96075
16.310985300000084,2.162215e-06,19.96076
16.815023799999835,2.183713e-06,19.96075
17.31801970000015,2.207672e-06,19.96074
17.82347780000009,2.228137e-06,19.96076
18.326533200000085,2.248828e-06,19.96074
18.831623500000205,2.267199e-06,19.96075
19.34390119999989,2.287304e-06,19.96075
19.845299800000248,2.306511e-06,19.96076
20.345869199999925,2.326326e-06,19.96075
20.85278079999989,2.341816e-06,19.96076
21.356772900000124,2.357787e-06,19.96076
21.862900399999944,2.372554e-06,19.96075
22.369017600000006,2.389282e-06,19.96076
22.87054709999984,2.405394e-06,19.96074
23.375000099999852,2.414671e-06,19.96077
23.876393200000166,2.429616e-06,19.96077
24.39235880000024,2.445755e-06,19.96076
24.892811600000186,2.461698e-06,19.96077
25.399859099999958,2.47539e-06,19.96077
25.90167479999991,2.487292e-06,19.96076
26.404400400000213,2.502793e-06,19.96076
26.908598399999846,2.512185e-06,19.96078
27.412286799999947,2.525533e-06,19.96077
27.91378140000006,2.53608e-06,19.96077
28.417037900000196,2.54523e-06,19.96075
28.921378200000163,2.554858e-06,19.96078
29.422331600000234,2.565612e-06,19.96076
29.93613940000023,2.576202e-06,19.96077
30.438393100000212,2.581417e-06,19.96077
30.941434400000162,2.587518e-06,19.96078
31.444648499999857,2.59256e-06,19.96078
31.94500700000026,2.603176e-06,19.96078
32.447697399999925,2.611264e-06,19.96077
32.949631599999975,2.617254e-06,19.96079
33.45109270000012,2.630415e-06,19.96078
33.957596000000194,2.630195e-06,19.96078
34.46341010000015,2.637474e-06,19.96077
34.96652690000019,2.64977e-06,19.96078
35.47000079999998,2.648112e-06,19.96078
35.97579219999989,2.6512e-06,19.96078
36.48125370000025,2.656907e-06,19.96078
36.984651700000086,2.662243e-06,19.9608
37.48915960000022,2.662989e-06,19.9608
37.994173000000046,2.665548e-06,19.96079
38.498580100000254,2.678276e-06,19.9608
38.9990342000001,2.681892e-06,19.96079
39.50210920000018,2.68469e-06,19.96079
40.009470299999975,2.675658e-06,19.9608
40.51122940000005,2.680167e-06,19.96078
41.01692200000025,2.685122e-06,19.9608
41.53264880000006,2.69013e-06,19.9608
42.03397880000011,2.691973e-06,19.9608
42.534285900000214,2.690713e-06,19.96078
43.0400496000002,2.694717e-06,19.96078
43.55349260000003,2.695224e-06,19.96079
44.05563639999991,2.696373e-06,19.96079
44.55867840000019,2.694349e-06,19.96079
45.06019430000015,2.69463e-06,19.96079
45.567027600000074,2.69865e-06,19.96079
46.06990410000026,2.699732e-06,19.96081
46.578486500000054,2.69922e-06,19.9608
47.088069800000085,2.695801e-06,19.96079
47.595018699999855,2.694935e-06,19.96079
48.09816039999987,2.695461e-06,19.9608
48.602528599999914,2.694251e-06,19.9608
49.10616179999988,2.694388e-06,19.9608
49.60841449999998,2.693153e-06,19.96081
50.112462999999934,2.686869e-06,19.96079
50.614961799999946,2.691171e-06,19.96079
51.11619359999986,2.688862e-06,19.96078
51.61922110000023,2.689344e-06,19.96079
52.133083799999895,2.685993e-06,19.9608
52.637152400000105,2.68345e-06,19.96079
53.13756199999989,2.683304e-06,19.96082
53.6424648000002,2.681787e-06,19.96082
54.144567899999856,2.678899e-06,19.96078
54.64969010000004,2.677865e-06,19.96079
55.15142190000006,2.677185e-06,19.96079
55.66572989999986,2.676048e-06,19.9608
56.16737499999999,2.674711e-06,19.96081
56.67047480000019,2.672598e-06,19.96079
57.17409129999987,2.667937e-06,19.9608
57.67576670000017,2.661989e-06,19.9608
58.18010480000021,2.663031e-06,19.9608
58.69175840000025,2.660143e-06,19.96081
59.20720990000018,2.657498e-06,19.96081
59.72283329999982,2.650973e-06,19.96081
60.22738990000016,2.640116e-06,19.9608
60.86964810000018,0.0001357073,19.96082
61.23321729999998,0.000218275,19.9607
61.749122799999896,0.0003235449,19.96064
62.25006369999983,0.0004232913,19.9606
62.75496040000007,0.0005026339,19.96058
63.25702589999992,0.000557771,19.96052
63.76189190000014,0.0005711849,19.96052
64.26694869999983,0.0005623802,19.96055
64.7817226000002,0.0005538334,19.96054
65.28419399999984,0.0005511475,19.96054
65.78923480000003,0.0005484426,19.96054
66.29164429999992,0.0005470188,19.96054
66.79499620000024,0.0005443558,19.96054
67.29553769999984,0.0005418669,19.96056
67.81044460000021,0.0005389728,19.96054
68.32581299999993,0.0005369027,19.96055
68.83178510000016,0.0005343237,19.96054
69.33716890000005,0.0005344054,19.96056
69.84084239999993,0.0005344056,19.96054
70.34162980000019,0.0005332005,19.96055
70.84595309999986,0.0005316586,19.96056
71.34918150000021,0.0005311306,19.96055
71.85545460000003,0.0005305678,19.96054
72.35554600000023,0.0005286815,19.96055
72.85886530000016,0.0005278521,19.96055
73.37507480000022,0.000528875,19.96056
73.88007740000012,0.0005278708,19.96054
74.3838380000002,0.0005274016,19.96058
74.89009690000012,0.0005258428,19.96058
75.40580080000018,0.0005249114,19.96057
75.9104225000001,0.0005247431,19.96058
76.41309469999987,0.000524461,19.96058
76.91511129999981,0.0005230167,19.96058
77.42090469999994,0.0005220786,19.96055
77.9260921,0.0005210642,19.96057
78.43025649999981,0.0005213589,19.96057
78.93260370000007,0.0005214693,19.96058
79.43316980000009,0.0005205303,19.96057
79.93586219999997,0.0005194712,19.96059
80.45029909999994,0.0005190548,19.96058
80.95245049999994,0.0005178035,19.96058
81.4537734999999,0.0005177364,19.96057
81.95380209999985,0.0005170852,19.96056
82.46793590000016,0.0005164904,19.96058
82.9709527,0.0005165746,19.96059
83.47577009999986,0.0005166288,19.96059
83.99178930000016,0.0005152316,19.96058
84.49816740000006,0.0005144951,19.96058
85.00040100000024,0.0005139872,19.96058
85.50385000000006,0.000513842,19.96057
86.00587559999985,0.0005140111,19.96056
86.51071910000019,0.0005143377,19.96059
87.01498470000024,0.0005136358,19.96057
87.51824540000007,0.0005133583,19.96058
88.0197392,0.0005130956,19.96058
88.52307800000017,0.0005119586,19.96059
89.0293630000001,0.0005120343,19.96055
89.54547150000008,0.000512102,19.96055
90.04821540000012,0.0005111637,19.96057
90.55617630000006,0.0005109877,19.96058
91.0582715999999,0.0005102693,19.96059
91.7233596000001,1.829611e-06,19.96083
92.26719120000007,1.578639e-06,19.96084
92.81259069999987,1.520611e-06,19.96082
93.36692029999995,1.50703e-06,19.96083
93.9305503999999,1.503822e-06,19.96083
94.4766823,1.506467e-06,19.96082
95.02632429999994,1.511709e-06,19.96082
95.57721410000022,1.517509e-06,19.96083
96.1296056000001,1.524179e-06,19.96082
96.6995952000002,1.528879e-06,19.96084
97.25493580000011,1.533862e-06,19.96083
97.81348909999997,1.540623e-06,19.96082
98.36886400000003,1.547904e-06,19.96082
98.92746249999982,1.556246e-06,19.96084
99.4824778000002,1.562847e-06,19.96083
100.03721039999982,1.569531e-06,19.96084
100.5993413000001,1.574858e-06,19.96083
101.1954197,1.580996e-06,19.96084
101.77132500000016,1.588842e-06,19.96083
102.33478479999985,1.594955e-06,19.96082
102.91056329999992,1.60222e-06,19.96083
103.46682969999983,1.608033e-06,19.96083
104.03191879999986,1.613549e-06,19.96084
104.6089422,1.619235e-06,19.96084
105.17409140000018,1.624437e-06,19.96086
105.74344079999992,1.63074e-06,19.96083
106.31469770000012,1.636783e-06,19.96084
106.88303200000018,1.64238e-06,19.96083
107.44951309999988,1.650154e-06,19.96085
108.02278030000025,1.656458e-06,19.96086
108.59950919999983,1.662178e-06,19.96085
109.20430440000018,1.667148e-06,19.96085
109.78941200000008,1.672059e-06,19.96082
110.38049390000015,1.678962e-06,19.96085
110.98312739999983,1.685168e-06,19.96083
111.70282189999989,1.687964e-06,19.96083
112.45736320000015,1.695073e-06,19.96083
113.0901643000002,1.700141e-06,19.96084
113.72746529999995,1.706048e-06,19.96084
114.30440039999985,1.71002e-06,19.96082
114.88272569999981,1.71416e-06,19.96083
115.49083310000015,1.718114e-06,19.96084
116.08121970000002,1.722888e-06,19.96086
116.68571659999998,1.72504e-06,19.96086
117.2737258000002,1.729151e-06,19.96085
117.89841200000001,1.732429e-06,19.96085
118.61392209999985,1.737097e-06,19.96086
119.24887750000016,1.741389e-06,19.96085
119.91836790000025,1.74351e-06,19.96087
120.50775220000014,1.747457e-06,19.96085
121.10672509999995,1.750659e-06,19.96086
121.69443499999988,1.753907e-06,19.96084
122.2856698999999,1.756046e-06,19.96085
122.88324620000003,1.75906e-06,19.96086
123.49008520000007,1.762764e-06,19.96085
124.08456079999996,1.763188e-06,19.96086
124.68496330000016,1.766036e-06,19.96086
125.28472790000023,1.769311e-06,19.96083
125.88223169999992,1.77226e-06,19.96086
126.50196610000012,1.774427e-06,19.96085
127.09689560000015,1.77752e-06,19.96084
127.69381599999997,1.776731e-06,19.96086
128.2943951000002,1.779073e-06,19.96086
128.90672589999986,1.779579e-06,19.96087
129.50946860000022,1.781872e-06,19.96086
130.10874740000008,1.785127e-06,19.96087
130.70931010000004,1.786279e-06,19.96087
131.30571939999982,1.787417e-06,19.96087
131.9103682,1.788839e-06,19.96086
132.5163167999999,1.790828e-06,19.96085
133.11917380000023,1.792929e-06,19.96087
133.73838849999993,1.794411e-06,19.96085
134.3546839999999,1.796135e-06,19.96087
134.97465439999996,1.797338e-06,19.96088
135.58634940000002,1.798622e-06,19.96086
136.19567180000013,1.798921e-06,19.96087
136.81126249999988,1.799816e-06,19.96086
137.4331873000001,1.803954e-06,19.96086
138.0433455000002,1.803038e-06,19.96086
138.67809850000003,1.804091e-06,19.96086
139.29102569999986,1.804894e-06,19.96087
139.91241730000002,1.805197e-06,19.96086
140.5260847999998,1.806022e-06,19.96087
141.14367949999996,1.806997e-06,19.96087
141.7632093000002,1.808827e-06,19.96087
142.42770359999986,1.809827e-06,19.96087
143.07058340000003,1.811087e-06,19.96087
143.70691679999982,1.810085e-06,19.96088
144.32513240000026,1.810904e-06,19.96087
144.9692610000002,1.810648e-06,19.96087
145.6016728999998,1.81017e-06,19.96087
146.2234953000002,1.811545e-06,19.96087
146.8546636000001,1.812499e-06,19.96087
147.4782408000001,1.812e-06,19.96087
148.13147310000022,1.811424e-06,19.96088
148.77710109999998,1.812684e-06,19.96088
149.40521820000004,1.813321e-06,19.96087
150.04456960000016,1.813001e-06,19.96086
