Created as New Dataset, , 
nm, A, 
800.0, 0.1882, 
799.0, 0.1891, 
798.0, 0.1881, 
797.0, 0.1896, 
796.0, 0.1880, 
795.0, 0.1892, 
794.0, 0.1866, 
793.0, 0.1893, 
792.0, 0.1898, 
791.0, 0.1868, 
790.0, 0.1918, 
789.0, 0.1909, 
788.0, 0.1903, 
787.0, 0.1907, 
786.0, 0.1900, 
785.0, 0.1897, 
784.0, 0.1893, 
783.0, 0.1931, 
782.0, 0.1912, 
781.0, 0.1934, 
780.0, 0.1904, 
779.0, 0.1888, 
778.0, 0.1925, 
777.0, 0.1937, 
776.0, 0.1895, 
775.0, 0.1918, 
774.0, 0.1905, 
773.0, 0.1926, 
772.0, 0.1931, 
771.0, 0.1937, 
770.0, 0.1943, 
769.0, 0.1920, 
768.0, 0.1932, 
767.0, 0.1931, 
766.0, 0.1921, 
765.0, 0.1931, 
764.0, 0.1929, 
763.0, 0.1944, 
762.0, 0.1941, 
761.0, 0.1961, 
760.0, 0.1948, 
759.0, 0.1936, 
758.0, 0.1952, 
757.0, 0.1946, 
756.0, 0.1949, 
755.0, 0.1957, 
754.0, 0.1959, 
753.0, 0.1957, 
752.0, 0.1948, 
751.0, 0.1954, 
750.0, 0.1961, 
749.0, 0.1980, 
748.0, 0.1969, 
747.0, 0.1968, 
746.0, 0.1963, 
745.0, 0.1961, 
744.0, 0.1961, 
743.0, 0.1981, 
742.0, 0.1976, 
741.0, 0.1975, 
740.0, 0.1976, 
739.0, 0.1990, 
738.0, 0.2006, 
737.0, 0.1973, 
736.0, 0.2000, 
735.0, 0.2005, 
734.0, 0.1997, 
733.0, 0.2001, 
732.0, 0.2001, 
731.0, 0.2005, 
730.0, 0.2005, 
729.0, 0.2012, 
728.0, 0.2005, 
727.0, 0.2011, 
726.0, 0.2027, 
725.0, 0.2005, 
724.0, 0.2014, 
723.0, 0.2021, 
722.0, 0.2013, 
721.0, 0.2016, 
720.0, 0.2026, 
719.0, 0.2047, 
718.0, 0.2041, 
717.0, 0.2047, 
716.0, 0.2028, 
715.0, 0.2024, 
714.0, 0.2025, 
713.0, 0.2031, 
712.0, 0.2031, 
711.0, 0.2038, 
710.0, 0.2039, 
709.0, 0.2046, 
708.0, 0.2068, 
707.0, 0.2065, 
706.0, 0.2054, 
705.0, 0.2049, 
704.0, 0.2055, 
703.0, 0.2058, 
702.0, 0.2066, 
701.0, 0.2070, 
700.0, 0.2078, 
699.0, 0.2081, 
698.0, 0.2064, 
697.0, 0.2069, 
696.0, 0.2060, 
695.0, 0.2065, 
694.0, 0.2075, 
693.0, 0.2088, 
692.0, 0.2097, 
691.0, 0.2088, 
690.0, 0.2100, 
689.0, 0.2328, 
688.0, 0.2675, 
687.0, 0.2712, 
686.0, 0.2778, 
685.0, 0.2859, 
684.0, 0.2918, 
683.0, 0.2957, 
682.0, 0.2989, 
681.0, 0.3007, 
680.0, 0.3010, 
679.0, 0.3001, 
678.0, 0.3005, 
677.0, 0.3029, 
676.0, 0.3024, 
675.0, 0.3021, 
674.0, 0.3032, 
673.0, 0.3045, 
672.0, 0.3036, 
671.0, 0.3021, 
670.0, 0.3041, 
669.0, 0.3045, 
668.0, 0.3046, 
667.0, 0.3052, 
666.0, 0.3048, 
665.0, 0.3055, 
664.0, 0.3055, 
663.0, 0.3046, 
662.0, 0.3045, 
661.0, 0.3063, 
660.0, 0.3083, 
659.0, 0.3088, 
658.0, 0.3085, 
657.0, 0.3087, 
656.0, 0.3097, 
655.0, 0.3114, 
654.0, 0.3118, 
653.0, 0.3121, 
652.0, 0.3106, 
651.0, 0.3098, 
650.0, 0.3109, 
649.0, 0.3121, 
648.0, 0.3138, 
647.0, 0.3131, 
646.0, 0.3135, 
645.0, 0.3136, 
644.0, 0.3130, 
643.0, 0.3149, 
642.0, 0.3132, 
641.0, 0.3117, 
640.0, 0.3119, 
639.0, 0.3128, 
638.0, 0.3108, 
637.0, 0.3109, 
636.0, 0.3113, 
635.0, 0.3089, 
634.0, 0.3092, 
633.0, 0.3084, 
632.0, 0.3102, 
631.0, 0.3101, 
630.0, 0.3083, 
629.0, 0.3081, 
628.0, 0.3098, 
627.0, 0.3111, 
626.0, 0.3088, 
625.0, 0.3087, 
624.0, 0.3073, 
623.0, 0.3086, 
622.0, 0.3092, 
621.0, 0.3097, 
620.0, 0.3090, 
619.0, 0.3086, 
618.0, 0.3080, 
617.0, 0.3088, 
616.0, 0.3078, 
615.0, 0.3071, 
614.0, 0.3103, 
613.0, 0.3098, 
612.0, 0.3098, 
611.0, 0.3112, 
610.0, 0.3078, 
609.0, 0.3091, 
608.0, 0.3092, 
607.0, 0.3088, 
606.0, 0.3109, 
605.0, 0.3095, 
604.0, 0.3089, 
603.0, 0.3068, 
602.0, 0.3093, 
601.0, 0.3115, 
600.0, 0.3105, 
599.0, 0.3127, 
598.0, 0.3100, 
597.0, 0.3126, 
596.0, 0.3136, 
595.0, 0.3165, 
594.0, 0.3161, 
593.0, 0.3156, 
592.0, 0.3165, 
591.0, 0.3174, 
590.0, 0.3176, 
589.0, 0.3188, 
588.0, 0.3190, 
587.0, 0.3198, 
586.0, 0.3241, 
585.0, 0.3276, 
584.0, 0.3262, 
583.0, 0.3296, 
582.0, 0.3334, 
581.0, 0.3383, 
580.0, 0.3447, 
579.0, 0.3533, 
578.0, 0.3583, 
577.0, 0.3714, 
576.0, 0.3861, 
575.0, 0.4027, 
574.0, 0.4279, 
573.0, 0.4569, 
572.0, 0.4929, 
571.0, 0.5416, 
570.0, 0.6037, 
569.0, 0.6788, 
568.0, 0.7796, 
567.0, 0.9063, 
566.0, 1.0677, 
565.0, 1.2847, 
564.0, 1.5407, 
563.0, 1.9031, 
562.0, 2.3055, 
561.0, 2.7914, 
560.0, 10.0000, 
559.0, 3.2507, 
558.0, 2.6874, 
557.0, 10.0000, 
556.0, 3.1650, 
555.0, 2.8072, 
554.0, 3.5058, 
553.0, 2.7573, 
552.0, 10.0000, 
551.0, 2.3881, 
550.0, 10.0000, 
549.0, 2.8983, 
548.0, 2.3135, 
547.0, 10.0000, 
546.0, 2.3933, 
545.0, 3.5962, 
544.0, 10.0000, 
543.0, 3.2939, 
542.0, 2.5519, 
541.0, 2.6054, 
540.0, 2.8140, 
539.0, 3.1514, 
538.0, 2.7299, 
537.0, 2.6853, 
536.0, 2.9117, 
535.0, 10.0000, 
534.0, 2.9344, 
533.0, 2.7905, 
532.0, 10.0000, 
531.0, 2.4570, 
530.0, 2.3260, 
529.0, 2.4244, 
528.0, 10.0000, 
527.0, 2.7391, 
526.0, 3.3419, 
525.0, 2.6679, 
524.0, 2.6927, 
523.0, 2.5229, 
522.0, 2.9550, 
521.0, 3.1854, 
520.0, 3.2832, 
519.0, 2.9067, 
518.0, 3.0099, 
517.0, 2.8858, 
516.0, 3.0134, 
515.0, 10.0000, 
514.0, 10.0000, 
513.0, 10.0000, 
512.0, 10.0000, 
511.0, 10.0000, 
510.0, 10.0000, 
509.0, 10.0000, 
508.0, 10.0000, 
507.0, 10.0000, 
506.0, 10.0000, 
505.0, 10.0000, 
504.0, 10.0000, 
503.0, 10.0000, 
502.0, 10.0000, 
501.0, 10.0000, 
500.0, 10.0000, 
499.0, 10.0000, 
498.0, 10.0000, 
497.0, 10.0000, 
496.0, 10.0000, 
495.0, 10.0000, 
494.0, 10.0000, 
493.0, 10.0000, 
492.0, 10.0000, 
491.0, 10.0000, 
490.0, 10.0000, 
489.0, 3.2394, 
488.0, 10.0000, 
487.0, 2.9634, 
486.0, 2.4771, 
485.0, 2.3469, 
484.0, 2.6601, 
483.0, 2.5161, 
482.0, 2.2063, 
481.0, 2.2876, 
480.0, 2.1955, 
479.0, 2.2752, 
478.0, 2.5361, 
477.0, 2.4962, 
476.0, 2.6991, 
475.0, 2.3300, 
474.0, 3.3287, 
473.0, 2.8502, 
472.0, 2.8110, 
471.0, 3.5709, 
470.0, 3.0266, 
469.0, 4.1724, 
468.0, 2.8292, 
467.0, 2.6662, 
466.0, 2.8924, 
465.0, 2.8295, 
464.0, 10.0000, 
463.0, 10.0000, 
462.0, 10.0000, 
461.0, 10.0000, 
460.0, 10.0000, 
459.0, 10.0000, 
458.0, 10.0000, 
457.0, 10.0000, 
456.0, 10.0000, 
455.0, 10.0000, 
454.0, 10.0000, 
453.0, 10.0000, 
452.0, 10.0000, 
451.0, 10.0000, 
450.0, 10.0000, 
449.0, 10.0000, 
448.0, 3.3881, 
447.0, 10.0000, 
446.0, 10.0000, 
445.0, 3.1658, 
444.0, 10.0000, 
443.0, 3.1641, 
442.0, 3.3175, 
441.0, 10.0000, 
440.0, 10.0000, 
439.0, 10.0000, 
438.0, 3.0800, 
437.0, 10.0000, 
436.0, 10.0000, 
435.0, 3.0788, 
434.0, 2.4939, 
433.0, 2.5414, 
432.0, 10.0000, 
431.0, 10.0000, 
430.0, 3.4539, 
429.0, 10.0000, 
428.0, 10.0000, 
427.0, 10.0000, 
426.0, 3.5456, 
425.0, 10.0000, 
424.0, 10.0000, 
423.0, 10.0000, 
422.0, 10.0000, 
421.0, 4.1458, 
420.0, 10.0000, 
419.0, 10.0000, 
418.0, 10.0000, 
417.0, 10.0000, 
416.0, 10.0000, 
415.0, 10.0000, 
414.0, 10.0000, 
413.0, 2.9356, 
412.0, 2.6764, 
411.0, 10.0000, 
410.0, 10.0000, 
409.0, 10.0000, 
408.0, 10.0000, 
407.0, 10.0000, 
406.0, 10.0000, 
405.0, 10.0000, 
404.0, 10.0000, 
403.0, 10.0000, 
402.0, 10.0000, 
401.0, 2.7147, 
400.0, 10.0000, 
