Created as New Dataset, , 
nm, A, 
800.0, 0.1260, 
799.0, 0.1271, 
798.0, 0.1262, 
797.0, 0.1276, 
796.0, 0.1275, 
795.0, 0.1253, 
794.0, 0.1269, 
793.0, 0.1267, 
792.0, 0.1257, 
791.0, 0.1265, 
790.0, 0.1272, 
789.0, 0.1277, 
788.0, 0.1262, 
787.0, 0.1269, 
786.0, 0.1280, 
785.0, 0.1259, 
784.0, 0.1296, 
783.0, 0.1273, 
782.0, 0.1263, 
781.0, 0.1283, 
780.0, 0.1267, 
779.0, 0.1272, 
778.0, 0.1260, 
777.0, 0.1275, 
776.0, 0.1274, 
775.0, 0.1281, 
774.0, 0.1281, 
773.0, 0.1267, 
772.0, 0.1271, 
771.0, 0.1282, 
770.0, 0.1274, 
769.0, 0.1276, 
768.0, 0.1278, 
767.0, 0.1276, 
766.0, 0.1277, 
765.0, 0.1285, 
764.0, 0.1282, 
763.0, 0.1274, 
762.0, 0.1277, 
761.0, 0.1286, 
760.0, 0.1271, 
759.0, 0.1278, 
758.0, 0.1269, 
757.0, 0.1272, 
756.0, 0.1271, 
755.0, 0.1264, 
754.0, 0.1269, 
753.0, 0.1283, 
752.0, 0.1292, 
751.0, 0.1286, 
750.0, 0.1285, 
749.0, 0.1299, 
748.0, 0.1285, 
747.0, 0.1309, 
746.0, 0.1290, 
745.0, 0.1297, 
744.0, 0.1301, 
743.0, 0.1294, 
742.0, 0.1299, 
741.0, 0.1290, 
740.0, 0.1307, 
739.0, 0.1307, 
738.0, 0.1303, 
737.0, 0.1301, 
736.0, 0.1302, 
735.0, 0.1300, 
734.0, 0.1299, 
733.0, 0.1299, 
732.0, 0.1292, 
731.0, 0.1291, 
730.0, 0.1308, 
729.0, 0.1311, 
728.0, 0.1310, 
727.0, 0.1307, 
726.0, 0.1308, 
725.0, 0.1314, 
724.0, 0.1310, 
723.0, 0.1310, 
722.0, 0.1301, 
721.0, 0.1299, 
720.0, 0.1296, 
719.0, 0.1309, 
718.0, 0.1313, 
717.0, 0.1320, 
716.0, 0.1305, 
715.0, 0.1296, 
714.0, 0.1301, 
713.0, 0.1308, 
712.0, 0.1307, 
711.0, 0.1310, 
710.0, 0.1308, 
709.0, 0.1304, 
708.0, 0.1316, 
707.0, 0.1322, 
706.0, 0.1310, 
705.0, 0.1309, 
704.0, 0.1301, 
703.0, 0.1307, 
702.0, 0.1318, 
701.0, 0.1314, 
700.0, 0.1323, 
699.0, 0.1320, 
698.0, 0.1321, 
697.0, 0.1319, 
696.0, 0.1311, 
695.0, 0.1316, 
694.0, 0.1318, 
693.0, 0.1324, 
692.0, 0.1326, 
691.0, 0.1330, 
690.0, 0.1333, 
689.0, 0.1565, 
688.0, 0.1886, 
687.0, 0.1862, 
686.0, 0.1872, 
685.0, 0.1892, 
684.0, 0.1880, 
683.0, 0.1843, 
682.0, 0.1784, 
681.0, 0.1731, 
680.0, 0.1681, 
679.0, 0.1620, 
678.0, 0.1569, 
677.0, 0.1532, 
676.0, 0.1491, 
675.0, 0.1449, 
674.0, 0.1423, 
673.0, 0.1401, 
672.0, 0.1379, 
671.0, 0.1324, 
670.0, 0.1227, 
669.0, 0.1161, 
668.0, 0.1151, 
667.0, 0.1152, 
666.0, 0.1144, 
665.0, 0.1146, 
664.0, 0.1163, 
663.0, 0.1164, 
662.0, 0.1165, 
661.0, 0.1189, 
660.0, 0.1200, 
659.0, 0.1197, 
658.0, 0.1201, 
657.0, 0.1213, 
656.0, 0.1220, 
655.0, 0.1226, 
654.0, 0.1243, 
653.0, 0.1239, 
652.0, 0.1237, 
651.0, 0.1238, 
650.0, 0.1237, 
649.0, 0.1246, 
648.0, 0.1258, 
647.0, 0.1260, 
646.0, 0.1260, 
645.0, 0.1253, 
644.0, 0.1260, 
643.0, 0.1271, 
642.0, 0.1270, 
641.0, 0.1272, 
640.0, 0.1269, 
639.0, 0.1275, 
638.0, 0.1268, 
637.0, 0.1281, 
636.0, 0.1288, 
635.0, 0.1277, 
634.0, 0.1279, 
633.0, 0.1283, 
632.0, 0.1294, 
631.0, 0.1281, 
630.0, 0.1271, 
629.0, 0.1286, 
628.0, 0.1290, 
627.0, 0.1306, 
626.0, 0.1299, 
625.0, 0.1296, 
624.0, 0.1290, 
623.0, 0.1307, 
622.0, 0.1320, 
621.0, 0.1308, 
620.0, 0.1310, 
619.0, 0.1314, 
618.0, 0.1305, 
617.0, 0.1313, 
616.0, 0.1309, 
615.0, 0.1300, 
614.0, 0.1319, 
613.0, 0.1328, 
612.0, 0.1338, 
611.0, 0.1326, 
610.0, 0.1321, 
609.0, 0.1335, 
608.0, 0.1322, 
607.0, 0.1334, 
606.0, 0.1346, 
605.0, 0.1348, 
604.0, 0.1340, 
603.0, 0.1343, 
602.0, 0.1357, 
601.0, 0.1355, 
600.0, 0.1358, 
599.0, 0.1358, 
598.0, 0.1353, 
597.0, 0.1369, 
596.0, 0.1364, 
595.0, 0.1373, 
594.0, 0.1371, 
593.0, 0.1375, 
592.0, 0.1396, 
591.0, 0.1384, 
590.0, 0.1393, 
589.0, 0.1395, 
588.0, 0.1410, 
587.0, 0.1436, 
586.0, 0.1451, 
585.0, 0.1487, 
584.0, 0.1499, 
583.0, 0.1536, 
582.0, 0.1569, 
581.0, 0.1627, 
580.0, 0.1697, 
579.0, 0.1775, 
578.0, 0.1871, 
577.0, 0.2004, 
576.0, 0.2164, 
575.0, 0.2402, 
574.0, 0.2655, 
573.0, 0.2992, 
572.0, 0.3428, 
571.0, 0.3995, 
570.0, 0.4699, 
569.0, 0.5618, 
568.0, 0.6786, 
567.0, 0.8220, 
566.0, 1.0087, 
565.0, 1.2413, 
564.0, 1.5510, 
563.0, 1.9472, 
562.0, 2.3878, 
561.0, 2.8077, 
560.0, 3.4288, 
559.0, 2.9039, 
558.0, 3.5070, 
557.0, 2.8648, 
556.0, 10.0000, 
555.0, 2.6737, 
554.0, 2.7734, 
553.0, 10.0000, 
552.0, 3.2482, 
551.0, 2.8393, 
550.0, 10.0000, 
549.0, 2.8191, 
548.0, 10.0000, 
547.0, 3.7207, 
546.0, 2.8571, 
545.0, 10.0000, 
544.0, 2.8165, 
543.0, 10.0000, 
542.0, 4.1953, 
541.0, 2.7651, 
540.0, 2.7628, 
539.0, 2.3733, 
538.0, 2.6738, 
537.0, 2.6342, 
536.0, 10.0000, 
535.0, 2.7918, 
534.0, 3.1483, 
533.0, 10.0000, 
532.0, 2.4400, 
531.0, 2.9341, 
530.0, 2.3698, 
529.0, 2.6438, 
528.0, 10.0000, 
527.0, 2.6949, 
526.0, 3.2328, 
525.0, 2.3940, 
524.0, 2.8618, 
523.0, 2.7707, 
522.0, 3.0393, 
521.0, 10.0000, 
520.0, 3.4873, 
519.0, 3.4865, 
518.0, 2.6675, 
517.0, 3.0407, 
516.0, 3.4114, 
515.0, 2.6566, 
514.0, 2.9858, 
513.0, 10.0000, 
512.0, 10.0000, 
511.0, 10.0000, 
510.0, 10.0000, 
509.0, 10.0000, 
508.0, 10.0000, 
507.0, 10.0000, 
506.0, 10.0000, 
505.0, 10.0000, 
504.0, 10.0000, 
503.0, 10.0000, 
502.0, 10.0000, 
501.0, 10.0000, 
500.0, 10.0000, 
499.0, 10.0000, 
498.0, 10.0000, 
497.0, 10.0000, 
496.0, 10.0000, 
495.0, 10.0000, 
494.0, 10.0000, 
493.0, 10.0000, 
492.0, 10.0000, 
491.0, 10.0000, 
490.0, 10.0000, 
489.0, 10.0000, 
488.0, 10.0000, 
487.0, 2.9151, 
486.0, 2.9626, 
485.0, 2.6122, 
484.0, 2.6005, 
483.0, 2.2587, 
482.0, 2.3135, 
481.0, 2.1779, 
480.0, 2.2044, 
479.0, 2.3641, 
478.0, 2.2657, 
477.0, 2.5976, 
476.0, 2.8338, 
475.0, 2.4042, 
474.0, 2.6686, 
473.0, 2.5596, 
472.0, 2.6675, 
471.0, 2.6816, 
470.0, 2.6676, 
469.0, 3.0585, 
468.0, 2.8099, 
467.0, 10.0000, 
466.0, 10.0000, 
465.0, 10.0000, 
464.0, 10.0000, 
463.0, 10.0000, 
462.0, 10.0000, 
461.0, 10.0000, 
460.0, 10.0000, 
459.0, 10.0000, 
458.0, 10.0000, 
457.0, 10.0000, 
456.0, 10.0000, 
455.0, 10.0000, 
454.0, 10.0000, 
453.0, 10.0000, 
452.0, 10.0000, 
451.0, 10.0000, 
450.0, 10.0000, 
449.0, 10.0000, 
448.0, 10.0000, 
447.0, 10.0000, 
446.0, 3.1639, 
445.0, 10.0000, 
444.0, 2.8443, 
443.0, 2.7327, 
442.0, 3.4637, 
441.0, 10.0000, 
440.0, 10.0000, 
439.0, 2.8182, 
438.0, 3.0452, 
437.0, 3.3135, 
436.0, 10.0000, 
435.0, 10.0000, 
434.0, 2.9262, 
433.0, 3.2511, 
432.0, 3.0388, 
431.0, 3.2491, 
430.0, 10.0000, 
429.0, 3.0379, 
428.0, 10.0000, 
427.0, 10.0000, 
426.0, 10.0000, 
425.0, 10.0000, 
424.0, 3.5457, 
423.0, 10.0000, 
422.0, 10.0000, 
421.0, 10.0000, 
420.0, 10.0000, 
419.0, 10.0000, 
418.0, 10.0000, 
417.0, 10.0000, 
416.0, 10.0000, 
415.0, 10.0000, 
414.0, 3.6623, 
413.0, 10.0000, 
412.0, 2.7074, 
411.0, 2.6470, 
410.0, 3.4391, 
409.0, 10.0000, 
408.0, 10.0000, 
407.0, 10.0000, 
406.0, 10.0000, 
405.0, 4.1322, 
404.0, 3.3533, 
403.0, 10.0000, 
402.0, 10.0000, 
401.0, 10.0000, 
400.0, 10.0000, 
